Apr. 7, 2014   14:01:06
Amperometric i-t Curve
File: z:\research\electrochemistry\04-07-2014\01ait\01ait -0.4v ptqcm in 4.5g kno3.txt
Data Source:  Experiment
Instrument Model:  CHI760D
Header: 
Note: 

Init E (V) = -0.4
Sample Interval (s) = 1
Run Time (sec) = 9.999e+3
Quiet Time (sec) = 0
Sensitivity (A/V) = 1e-5

Time/sec, Current/A, Charge/C

1.000e+0, 8.986e-5, 8.986e-4
2.000e+0, 3.844e-5, 9.370e-4
3.000e+0, 3.042e-5, 9.674e-4
4.000e+0, 2.689e-5, 9.943e-4
5.000e+0, 2.451e-5, 1.019e-3
6.000e+0, 2.276e-5, 1.042e-3
7.000e+0, 2.140e-5, 1.063e-3
8.000e+0, 2.023e-5, 1.083e-3
9.000e+0, 1.923e-5, 1.102e-3
1.000e+1, 1.827e-5, 1.121e-3
1.100e+1, 1.749e-5, 1.138e-3
1.200e+1, 1.690e-5, 1.155e-3
1.300e+1, 1.633e-5, 1.171e-3
1.400e+1, 1.582e-5, 1.187e-3
1.500e+1, 1.533e-5, 1.203e-3
1.600e+1, 1.482e-5, 1.217e-3
1.700e+1, 1.439e-5, 1.232e-3
1.800e+1, 1.405e-5, 1.246e-3
1.900e+1, 1.369e-5, 1.260e-3
2.000e+1, 1.339e-5, 1.273e-3
2.100e+1, 1.310e-5, 1.286e-3
2.200e+1, 1.282e-5, 1.299e-3
2.300e+1, 1.256e-5, 1.311e-3
2.400e+1, 1.233e-5, 1.324e-3
2.500e+1, 1.216e-5, 1.336e-3
2.600e+1, 1.193e-5, 1.348e-3
2.700e+1, 1.172e-5, 1.360e-3
2.800e+1, 1.153e-5, 1.371e-3
2.900e+1, 1.136e-5, 1.382e-3
3.000e+1, 1.119e-5, 1.394e-3
3.100e+1, 1.103e-5, 1.405e-3
3.200e+1, 1.088e-5, 1.416e-3
3.300e+1, 1.074e-5, 1.426e-3
3.400e+1, 1.061e-5, 1.437e-3
3.500e+1, 1.053e-5, 1.447e-3
3.600e+1, 1.039e-5, 1.458e-3
3.700e+1, 1.026e-5, 1.468e-3
3.800e+1, 1.014e-5, 1.478e-3
3.900e+1, 1.004e-5, 1.488e-3
4.000e+1, 9.921e-6, 1.498e-3
4.100e+1, 9.821e-6, 1.508e-3
4.200e+1, 9.713e-6, 1.518e-3
4.300e+1, 9.614e-6, 1.527e-3
4.400e+1, 9.514e-6, 1.537e-3
4.500e+1, 9.422e-6, 1.546e-3
4.600e+1, 9.345e-6, 1.556e-3
4.700e+1, 9.258e-6, 1.565e-3
4.800e+1, 9.168e-6, 1.574e-3
4.900e+1, 9.088e-6, 1.583e-3
5.000e+1, 9.014e-6, 1.592e-3
5.100e+1, 8.947e-6, 1.601e-3
5.200e+1, 8.877e-6, 1.610e-3
5.300e+1, 8.810e-6, 1.619e-3
5.400e+1, 8.759e-6, 1.628e-3
5.500e+1, 8.685e-6, 1.636e-3
5.600e+1, 8.603e-6, 1.645e-3
5.700e+1, 8.534e-6, 1.653e-3
5.800e+1, 8.466e-6, 1.662e-3
5.900e+1, 8.401e-6, 1.670e-3
6.000e+1, 8.340e-6, 1.679e-3
6.100e+1, 8.298e-6, 1.687e-3
6.200e+1, 8.237e-6, 1.695e-3
6.300e+1, 8.174e-6, 1.703e-3
6.400e+1, 8.118e-6, 1.711e-3
6.500e+1, 8.064e-6, 1.719e-3
6.600e+1, 8.010e-6, 1.727e-3
6.700e+1, 7.962e-6, 1.735e-3
6.800e+1, 7.917e-6, 1.743e-3
6.900e+1, 7.864e-6, 1.751e-3
7.000e+1, 7.825e-6, 1.759e-3
7.100e+1, 7.776e-6, 1.767e-3
7.200e+1, 7.726e-6, 1.775e-3
7.300e+1, 7.679e-6, 1.782e-3
7.400e+1, 7.635e-6, 1.790e-3
7.500e+1, 7.591e-6, 1.797e-3
7.600e+1, 7.549e-6, 1.805e-3
7.700e+1, 7.510e-6, 1.813e-3
7.800e+1, 7.471e-6, 1.820e-3
7.900e+1, 7.429e-6, 1.827e-3
8.000e+1, 7.389e-6, 1.835e-3
8.100e+1, 7.351e-6, 1.842e-3
8.200e+1, 7.313e-6, 1.849e-3
8.300e+1, 7.277e-6, 1.857e-3
8.400e+1, 7.240e-6, 1.864e-3
8.500e+1, 7.205e-6, 1.871e-3
8.600e+1, 7.170e-6, 1.878e-3
8.700e+1, 7.136e-6, 1.885e-3
8.800e+1, 7.102e-6, 1.893e-3
8.900e+1, 7.069e-6, 1.900e-3
9.000e+1, 7.036e-6, 1.907e-3
9.100e+1, 7.004e-6, 1.914e-3
9.200e+1, 6.978e-6, 1.921e-3
9.300e+1, 6.944e-6, 1.928e-3
9.400e+1, 6.914e-6, 1.935e-3
9.500e+1, 6.883e-6, 1.941e-3
9.600e+1, 6.854e-6, 1.948e-3
9.700e+1, 6.824e-6, 1.955e-3
9.800e+1, 6.796e-6, 1.962e-3
9.900e+1, 6.784e-6, 1.969e-3
1.000e+2, 6.751e-6, 1.975e-3
1.010e+2, 6.721e-6, 1.982e-3
1.020e+2, 6.693e-6, 1.989e-3
1.030e+2, 6.665e-6, 1.996e-3
1.040e+2, 6.639e-6, 2.002e-3
1.050e+2, 6.615e-6, 2.009e-3
1.060e+2, 6.622e-6, 2.015e-3
1.070e+2, 6.574e-6, 2.022e-3
1.080e+2, 6.547e-6, 2.029e-3
1.090e+2, 6.521e-6, 2.035e-3
1.100e+2, 6.496e-6, 2.042e-3
1.110e+2, 6.472e-6, 2.048e-3
1.120e+2, 6.448e-6, 2.054e-3
1.130e+2, 6.426e-6, 2.061e-3
1.140e+2, 6.403e-6, 2.067e-3
1.150e+2, 6.410e-6, 2.074e-3
1.160e+2, 6.380e-6, 2.080e-3
1.170e+2, 6.348e-6, 2.086e-3
1.180e+2, 6.324e-6, 2.093e-3
1.190e+2, 6.302e-6, 2.099e-3
1.200e+2, 6.281e-6, 2.105e-3
1.210e+2, 6.259e-6, 2.112e-3
1.220e+2, 6.239e-6, 2.118e-3
1.230e+2, 6.218e-6, 2.124e-3
1.240e+2, 6.199e-6, 2.130e-3
1.250e+2, 6.180e-6, 2.136e-3
1.260e+2, 6.159e-6, 2.143e-3
1.270e+2, 6.139e-6, 2.149e-3
1.280e+2, 6.120e-6, 2.155e-3
1.290e+2, 6.100e-6, 2.161e-3
1.300e+2, 6.081e-6, 2.167e-3
1.310e+2, 6.063e-6, 2.173e-3
1.320e+2, 6.045e-6, 2.179e-3
1.330e+2, 6.026e-6, 2.185e-3
1.340e+2, 6.009e-6, 2.191e-3
1.350e+2, 5.992e-6, 2.197e-3
1.360e+2, 5.974e-6, 2.203e-3
1.370e+2, 5.957e-6, 2.209e-3
1.380e+2, 5.940e-6, 2.215e-3
1.390e+2, 5.923e-6, 2.221e-3
1.400e+2, 5.907e-6, 2.227e-3
1.410e+2, 5.891e-6, 2.233e-3
1.420e+2, 5.875e-6, 2.239e-3
1.430e+2, 5.859e-6, 2.244e-3
1.440e+2, 5.843e-6, 2.250e-3
1.450e+2, 5.828e-6, 2.256e-3
1.460e+2, 5.812e-6, 2.262e-3
1.470e+2, 5.798e-6, 2.268e-3
1.480e+2, 5.782e-6, 2.274e-3
1.490e+2, 5.767e-6, 2.279e-3
1.500e+2, 5.756e-6, 2.285e-3
1.510e+2, 5.739e-6, 2.291e-3
1.520e+2, 5.725e-6, 2.297e-3
1.530e+2, 5.710e-6, 2.302e-3
1.540e+2, 5.697e-6, 2.308e-3
1.550e+2, 5.683e-6, 2.314e-3
1.560e+2, 5.669e-6, 2.319e-3
1.570e+2, 5.655e-6, 2.325e-3
1.580e+2, 5.642e-6, 2.331e-3
1.590e+2, 5.629e-6, 2.336e-3
1.600e+2, 5.617e-6, 2.342e-3
1.610e+2, 5.603e-6, 2.347e-3
1.620e+2, 5.590e-6, 2.353e-3
1.630e+2, 5.578e-6, 2.359e-3
1.640e+2, 5.565e-6, 2.364e-3
1.650e+2, 5.557e-6, 2.370e-3
1.660e+2, 5.550e-6, 2.375e-3
1.670e+2, 5.534e-6, 2.381e-3
1.680e+2, 5.518e-6, 2.386e-3
1.690e+2, 5.506e-6, 2.392e-3
1.700e+2, 5.494e-6, 2.397e-3
1.710e+2, 5.482e-6, 2.403e-3
1.720e+2, 5.470e-6, 2.408e-3
1.730e+2, 5.458e-6, 2.414e-3
1.740e+2, 5.447e-6, 2.419e-3
1.750e+2, 5.436e-6, 2.425e-3
1.760e+2, 5.424e-6, 2.430e-3
1.770e+2, 5.413e-6, 2.435e-3
1.780e+2, 5.402e-6, 2.441e-3
1.790e+2, 5.390e-6, 2.446e-3
1.800e+2, 5.379e-6, 2.452e-3
1.810e+2, 5.368e-6, 2.457e-3
1.820e+2, 5.358e-6, 2.462e-3
1.830e+2, 5.347e-6, 2.468e-3
1.840e+2, 5.337e-6, 2.473e-3
1.850e+2, 5.327e-6, 2.478e-3
1.860e+2, 5.316e-6, 2.484e-3
1.870e+2, 5.306e-6, 2.489e-3
1.880e+2, 5.296e-6, 2.494e-3
1.890e+2, 5.286e-6, 2.500e-3
1.900e+2, 5.276e-6, 2.505e-3
1.910e+2, 5.266e-6, 2.510e-3
1.920e+2, 5.256e-6, 2.515e-3
1.930e+2, 5.258e-6, 2.521e-3
1.940e+2, 5.239e-6, 2.526e-3
1.950e+2, 5.229e-6, 2.531e-3
1.960e+2, 5.220e-6, 2.536e-3
1.970e+2, 5.210e-6, 2.542e-3
1.980e+2, 5.201e-6, 2.547e-3
1.990e+2, 5.192e-6, 2.552e-3
2.000e+2, 5.182e-6, 2.557e-3
2.010e+2, 5.173e-6, 2.562e-3
2.020e+2, 5.164e-6, 2.567e-3
2.030e+2, 5.155e-6, 2.573e-3
2.040e+2, 5.146e-6, 2.578e-3
2.050e+2, 5.137e-6, 2.583e-3
2.060e+2, 5.129e-6, 2.588e-3
2.070e+2, 5.120e-6, 2.593e-3
2.080e+2, 5.111e-6, 2.598e-3
2.090e+2, 5.102e-6, 2.603e-3
2.100e+2, 5.094e-6, 2.608e-3
2.110e+2, 5.085e-6, 2.614e-3
2.120e+2, 5.077e-6, 2.619e-3
2.130e+2, 5.069e-6, 2.624e-3
2.140e+2, 5.061e-6, 2.629e-3
2.150e+2, 5.053e-6, 2.634e-3
2.160e+2, 5.045e-6, 2.639e-3
2.170e+2, 5.037e-6, 2.644e-3
2.180e+2, 5.029e-6, 2.649e-3
2.190e+2, 5.022e-6, 2.654e-3
2.200e+2, 5.013e-6, 2.659e-3
2.210e+2, 5.006e-6, 2.664e-3
2.220e+2, 4.998e-6, 2.669e-3
2.230e+2, 4.990e-6, 2.674e-3
2.240e+2, 4.983e-6, 2.679e-3
2.250e+2, 4.975e-6, 2.684e-3
2.260e+2, 4.968e-6, 2.689e-3
2.270e+2, 4.970e-6, 2.694e-3
2.280e+2, 4.956e-6, 2.699e-3
2.290e+2, 4.947e-6, 2.704e-3
2.300e+2, 4.942e-6, 2.709e-3
2.310e+2, 4.933e-6, 2.714e-3
2.320e+2, 4.926e-6, 2.719e-3
2.330e+2, 4.918e-6, 2.723e-3
2.340e+2, 4.911e-6, 2.728e-3
2.350e+2, 4.904e-6, 2.733e-3
2.360e+2, 4.897e-6, 2.738e-3
2.370e+2, 4.890e-6, 2.743e-3
2.380e+2, 4.883e-6, 2.748e-3
2.390e+2, 4.876e-6, 2.753e-3
2.400e+2, 4.870e-6, 2.758e-3
2.410e+2, 4.862e-6, 2.763e-3
2.420e+2, 4.856e-6, 2.767e-3
2.430e+2, 4.849e-6, 2.772e-3
2.440e+2, 4.842e-6, 2.777e-3
2.450e+2, 4.836e-6, 2.782e-3
2.460e+2, 4.830e-6, 2.787e-3
2.470e+2, 4.823e-6, 2.792e-3
2.480e+2, 4.816e-6, 2.796e-3
2.490e+2, 4.810e-6, 2.801e-3
2.500e+2, 4.804e-6, 2.806e-3
2.510e+2, 4.798e-6, 2.811e-3
2.520e+2, 4.791e-6, 2.816e-3
2.530e+2, 4.784e-6, 2.820e-3
2.540e+2, 4.778e-6, 2.825e-3
2.550e+2, 4.772e-6, 2.830e-3
2.560e+2, 4.766e-6, 2.835e-3
2.570e+2, 4.760e-6, 2.839e-3
2.580e+2, 4.754e-6, 2.844e-3
2.590e+2, 4.748e-6, 2.849e-3
2.600e+2, 4.742e-6, 2.854e-3
2.610e+2, 4.736e-6, 2.858e-3
2.620e+2, 4.730e-6, 2.863e-3
2.630e+2, 4.724e-6, 2.868e-3
2.640e+2, 4.718e-6, 2.873e-3
2.650e+2, 4.712e-6, 2.877e-3
2.660e+2, 4.706e-6, 2.882e-3
2.670e+2, 4.701e-6, 2.887e-3
2.680e+2, 4.695e-6, 2.891e-3
2.690e+2, 4.689e-6, 2.896e-3
2.700e+2, 4.684e-6, 2.901e-3
2.710e+2, 4.678e-6, 2.905e-3
2.720e+2, 4.673e-6, 2.910e-3
2.730e+2, 4.667e-6, 2.915e-3
2.740e+2, 4.662e-6, 2.919e-3
2.750e+2, 4.656e-6, 2.924e-3
2.760e+2, 4.650e-6, 2.929e-3
2.770e+2, 4.644e-6, 2.933e-3
2.780e+2, 4.639e-6, 2.938e-3
2.790e+2, 4.634e-6, 2.943e-3
2.800e+2, 4.629e-6, 2.947e-3
2.810e+2, 4.623e-6, 2.952e-3
2.820e+2, 4.617e-6, 2.957e-3
2.830e+2, 4.612e-6, 2.961e-3
2.840e+2, 4.607e-6, 2.966e-3
2.850e+2, 4.602e-6, 2.970e-3
2.860e+2, 4.597e-6, 2.975e-3
2.870e+2, 4.592e-6, 2.980e-3
2.880e+2, 4.587e-6, 2.984e-3
2.890e+2, 4.582e-6, 2.989e-3
2.900e+2, 4.577e-6, 2.993e-3
2.910e+2, 4.572e-6, 2.998e-3
2.920e+2, 4.567e-6, 3.002e-3
2.930e+2, 4.563e-6, 3.007e-3
2.940e+2, 4.557e-6, 3.012e-3
2.950e+2, 4.552e-6, 3.016e-3
2.960e+2, 4.547e-6, 3.021e-3
2.970e+2, 4.542e-6, 3.025e-3
2.980e+2, 4.537e-6, 3.030e-3
2.990e+2, 4.533e-6, 3.034e-3
3.000e+2, 4.529e-6, 3.039e-3
3.010e+2, 4.523e-6, 3.043e-3
3.020e+2, 4.519e-6, 3.048e-3
3.030e+2, 4.513e-6, 3.052e-3
3.040e+2, 4.509e-6, 3.057e-3
3.050e+2, 4.504e-6, 3.061e-3
3.060e+2, 4.499e-6, 3.066e-3
3.070e+2, 4.496e-6, 3.070e-3
3.080e+2, 4.491e-6, 3.075e-3
3.090e+2, 4.486e-6, 3.079e-3
3.100e+2, 4.482e-6, 3.084e-3
3.110e+2, 4.477e-6, 3.088e-3
3.120e+2, 4.472e-6, 3.093e-3
3.130e+2, 4.468e-6, 3.097e-3
3.140e+2, 4.463e-6, 3.102e-3
3.150e+2, 4.459e-6, 3.106e-3
3.160e+2, 4.455e-6, 3.111e-3
3.170e+2, 4.451e-6, 3.115e-3
3.180e+2, 4.446e-6, 3.120e-3
3.190e+2, 4.442e-6, 3.124e-3
3.200e+2, 4.438e-6, 3.128e-3
3.210e+2, 4.434e-6, 3.133e-3
3.220e+2, 4.430e-6, 3.137e-3
3.230e+2, 4.425e-6, 3.142e-3
3.240e+2, 4.421e-6, 3.146e-3
3.250e+2, 4.416e-6, 3.151e-3
3.260e+2, 4.412e-6, 3.155e-3
3.270e+2, 4.408e-6, 3.159e-3
3.280e+2, 4.404e-6, 3.164e-3
3.290e+2, 4.400e-6, 3.168e-3
3.300e+2, 4.396e-6, 3.173e-3
3.310e+2, 4.392e-6, 3.177e-3
3.320e+2, 4.388e-6, 3.181e-3
3.330e+2, 4.384e-6, 3.186e-3
3.340e+2, 4.379e-6, 3.190e-3
3.350e+2, 4.375e-6, 3.194e-3
3.360e+2, 4.371e-6, 3.199e-3
3.370e+2, 4.367e-6, 3.203e-3
3.380e+2, 4.363e-6, 3.208e-3
3.390e+2, 4.359e-6, 3.212e-3
3.400e+2, 4.356e-6, 3.216e-3
3.410e+2, 4.351e-6, 3.221e-3
3.420e+2, 4.347e-6, 3.225e-3
3.430e+2, 4.343e-6, 3.229e-3
3.440e+2, 4.340e-6, 3.234e-3
3.450e+2, 4.336e-6, 3.238e-3
3.460e+2, 4.332e-6, 3.242e-3
3.470e+2, 4.328e-6, 3.247e-3
3.480e+2, 4.324e-6, 3.251e-3
3.490e+2, 4.321e-6, 3.255e-3
3.500e+2, 4.317e-6, 3.260e-3
3.510e+2, 4.322e-6, 3.264e-3
3.520e+2, 4.319e-6, 3.268e-3
3.530e+2, 4.309e-6, 3.273e-3
3.540e+2, 4.304e-6, 3.277e-3
3.550e+2, 4.301e-6, 3.281e-3
3.560e+2, 4.297e-6, 3.285e-3
3.570e+2, 4.293e-6, 3.290e-3
3.580e+2, 4.289e-6, 3.294e-3
3.590e+2, 4.286e-6, 3.298e-3
3.600e+2, 4.282e-6, 3.303e-3
3.610e+2, 4.278e-6, 3.307e-3
3.620e+2, 4.275e-6, 3.311e-3
3.630e+2, 4.271e-6, 3.315e-3
3.640e+2, 4.267e-6, 3.320e-3
3.650e+2, 4.264e-6, 3.324e-3
3.660e+2, 4.261e-6, 3.328e-3
3.670e+2, 4.257e-6, 3.332e-3
3.680e+2, 4.254e-6, 3.337e-3
3.690e+2, 4.250e-6, 3.341e-3
3.700e+2, 4.275e-6, 3.345e-3
3.710e+2, 4.249e-6, 3.350e-3
3.720e+2, 4.244e-6, 3.354e-3
3.730e+2, 4.242e-6, 3.358e-3
3.740e+2, 4.236e-6, 3.362e-3
3.750e+2, 4.232e-6, 3.366e-3
3.760e+2, 4.229e-6, 3.371e-3
3.770e+2, 4.225e-6, 3.375e-3
3.780e+2, 4.222e-6, 3.379e-3
3.790e+2, 4.218e-6, 3.383e-3
3.800e+2, 4.215e-6, 3.388e-3
3.810e+2, 4.211e-6, 3.392e-3
3.820e+2, 4.208e-6, 3.396e-3
3.830e+2, 4.204e-6, 3.400e-3
3.840e+2, 4.201e-6, 3.404e-3
3.850e+2, 4.198e-6, 3.409e-3
3.860e+2, 4.194e-6, 3.413e-3
3.870e+2, 4.191e-6, 3.417e-3
3.880e+2, 4.188e-6, 3.421e-3
3.890e+2, 4.185e-6, 3.425e-3
3.900e+2, 4.182e-6, 3.430e-3
3.910e+2, 4.178e-6, 3.434e-3
3.920e+2, 4.175e-6, 3.438e-3
3.930e+2, 4.172e-6, 3.442e-3
3.940e+2, 4.169e-6, 3.446e-3
3.950e+2, 4.166e-6, 3.450e-3
3.960e+2, 4.163e-6, 3.455e-3
3.970e+2, 4.160e-6, 3.459e-3
3.980e+2, 4.156e-6, 3.463e-3
3.990e+2, 4.153e-6, 3.467e-3
4.000e+2, 4.150e-6, 3.471e-3
4.010e+2, 4.147e-6, 3.475e-3
4.020e+2, 4.144e-6, 3.479e-3
4.030e+2, 4.141e-6, 3.484e-3
4.040e+2, 4.138e-6, 3.488e-3
4.050e+2, 4.135e-6, 3.492e-3
4.060e+2, 4.132e-6, 3.496e-3
4.070e+2, 4.129e-6, 3.500e-3
4.080e+2, 4.126e-6, 3.504e-3
4.090e+2, 4.123e-6, 3.508e-3
4.100e+2, 4.120e-6, 3.513e-3
4.110e+2, 4.117e-6, 3.517e-3
4.120e+2, 4.114e-6, 3.521e-3
4.130e+2, 4.111e-6, 3.525e-3
4.140e+2, 4.108e-6, 3.529e-3
4.150e+2, 4.114e-6, 3.533e-3
4.160e+2, 4.108e-6, 3.537e-3
4.170e+2, 4.101e-6, 3.541e-3
4.180e+2, 4.099e-6, 3.545e-3
4.190e+2, 4.095e-6, 3.549e-3
4.200e+2, 4.092e-6, 3.554e-3
4.210e+2, 4.089e-6, 3.558e-3
4.220e+2, 4.087e-6, 3.562e-3
4.230e+2, 4.084e-6, 3.566e-3
4.240e+2, 4.080e-6, 3.570e-3
4.250e+2, 4.078e-6, 3.574e-3
4.260e+2, 4.075e-6, 3.578e-3
4.270e+2, 4.072e-6, 3.582e-3
4.280e+2, 4.070e-6, 3.586e-3
4.290e+2, 4.067e-6, 3.590e-3
4.300e+2, 4.065e-6, 3.594e-3
4.310e+2, 4.062e-6, 3.598e-3
4.320e+2, 4.059e-6, 3.602e-3
4.330e+2, 4.057e-6, 3.607e-3
4.340e+2, 4.054e-6, 3.611e-3
4.350e+2, 4.051e-6, 3.615e-3
4.360e+2, 4.048e-6, 3.619e-3
4.370e+2, 4.046e-6, 3.623e-3
4.380e+2, 4.043e-6, 3.627e-3
4.390e+2, 4.041e-6, 3.631e-3
4.400e+2, 4.038e-6, 3.635e-3
4.410e+2, 4.036e-6, 3.639e-3
4.420e+2, 4.033e-6, 3.643e-3
4.430e+2, 4.030e-6, 3.647e-3
4.440e+2, 4.028e-6, 3.651e-3
4.450e+2, 4.025e-6, 3.655e-3
4.460e+2, 4.022e-6, 3.659e-3
4.470e+2, 4.020e-6, 3.663e-3
4.480e+2, 4.018e-6, 3.667e-3
4.490e+2, 4.015e-6, 3.671e-3
4.500e+2, 4.012e-6, 3.675e-3
4.510e+2, 4.010e-6, 3.679e-3
4.520e+2, 4.007e-6, 3.683e-3
4.530e+2, 4.005e-6, 3.687e-3
4.540e+2, 4.003e-6, 3.691e-3
4.550e+2, 4.000e-6, 3.695e-3
4.560e+2, 3.998e-6, 3.699e-3
4.570e+2, 3.996e-6, 3.703e-3
4.580e+2, 3.993e-6, 3.707e-3
4.590e+2, 3.990e-6, 3.711e-3
4.600e+2, 3.988e-6, 3.715e-3
4.610e+2, 3.985e-6, 3.719e-3
4.620e+2, 3.983e-6, 3.723e-3
4.630e+2, 3.981e-6, 3.727e-3
4.640e+2, 3.978e-6, 3.731e-3
4.650e+2, 3.976e-6, 3.735e-3
4.660e+2, 3.973e-6, 3.739e-3
4.670e+2, 3.970e-6, 3.743e-3
4.680e+2, 3.968e-6, 3.747e-3
4.690e+2, 3.966e-6, 3.751e-3
4.700e+2, 3.963e-6, 3.755e-3
4.710e+2, 3.961e-6, 3.759e-3
4.720e+2, 3.959e-6, 3.763e-3
4.730e+2, 3.956e-6, 3.767e-3
4.740e+2, 3.954e-6, 3.771e-3
4.750e+2, 3.952e-6, 3.775e-3
4.760e+2, 3.950e-6, 3.779e-3
4.770e+2, 3.947e-6, 3.782e-3
4.780e+2, 3.945e-6, 3.786e-3
4.790e+2, 3.943e-6, 3.790e-3
4.800e+2, 3.941e-6, 3.794e-3
4.810e+2, 3.939e-6, 3.798e-3
4.820e+2, 3.936e-6, 3.802e-3
4.830e+2, 3.934e-6, 3.806e-3
4.840e+2, 3.931e-6, 3.810e-3
4.850e+2, 3.929e-6, 3.814e-3
4.860e+2, 3.927e-6, 3.818e-3
4.870e+2, 3.925e-6, 3.822e-3
4.880e+2, 3.923e-6, 3.826e-3
4.890e+2, 3.921e-6, 3.830e-3
4.900e+2, 3.918e-6, 3.834e-3
4.910e+2, 3.916e-6, 3.838e-3
4.920e+2, 3.914e-6, 3.841e-3
4.930e+2, 3.911e-6, 3.845e-3
4.940e+2, 3.909e-6, 3.849e-3
4.950e+2, 3.907e-6, 3.853e-3
4.960e+2, 3.904e-6, 3.857e-3
4.970e+2, 3.902e-6, 3.861e-3
4.980e+2, 3.900e-6, 3.865e-3
4.990e+2, 3.899e-6, 3.869e-3
5.000e+2, 3.896e-6, 3.873e-3
5.010e+2, 3.894e-6, 3.877e-3
5.020e+2, 3.892e-6, 3.880e-3
5.030e+2, 3.890e-6, 3.884e-3
5.040e+2, 3.888e-6, 3.888e-3
5.050e+2, 3.886e-6, 3.892e-3
5.060e+2, 3.884e-6, 3.896e-3
5.070e+2, 3.882e-6, 3.900e-3
5.080e+2, 3.880e-6, 3.904e-3
5.090e+2, 3.877e-6, 3.908e-3
5.100e+2, 3.876e-6, 3.912e-3
5.110e+2, 3.873e-6, 3.915e-3
5.120e+2, 3.871e-6, 3.919e-3
5.130e+2, 3.869e-6, 3.923e-3
5.140e+2, 3.867e-6, 3.927e-3
5.150e+2, 3.865e-6, 3.931e-3
5.160e+2, 3.863e-6, 3.935e-3
5.170e+2, 3.867e-6, 3.939e-3
5.180e+2, 3.868e-6, 3.942e-3
5.190e+2, 3.860e-6, 3.946e-3
5.200e+2, 3.858e-6, 3.950e-3
5.210e+2, 3.855e-6, 3.954e-3
5.220e+2, 3.853e-6, 3.958e-3
5.230e+2, 3.851e-6, 3.962e-3
5.240e+2, 3.849e-6, 3.966e-3
5.250e+2, 3.847e-6, 3.969e-3
5.260e+2, 3.845e-6, 3.973e-3
5.270e+2, 3.842e-6, 3.977e-3
5.280e+2, 3.840e-6, 3.981e-3
5.290e+2, 3.838e-6, 3.985e-3
5.300e+2, 3.836e-6, 3.989e-3
5.310e+2, 3.834e-6, 3.992e-3
5.320e+2, 3.832e-6, 3.996e-3
5.330e+2, 3.830e-6, 4.000e-3
5.340e+2, 3.828e-6, 4.004e-3
5.350e+2, 3.826e-6, 4.008e-3
5.360e+2, 3.824e-6, 4.012e-3
5.370e+2, 3.822e-6, 4.015e-3
5.380e+2, 3.820e-6, 4.019e-3
5.390e+2, 3.818e-6, 4.023e-3
5.400e+2, 3.817e-6, 4.027e-3
5.410e+2, 3.815e-6, 4.031e-3
5.420e+2, 3.813e-6, 4.035e-3
5.430e+2, 3.811e-6, 4.038e-3
5.440e+2, 3.809e-6, 4.042e-3
5.450e+2, 3.807e-6, 4.046e-3
5.460e+2, 3.806e-6, 4.050e-3
5.470e+2, 3.804e-6, 4.054e-3
5.480e+2, 3.802e-6, 4.057e-3
5.490e+2, 3.800e-6, 4.061e-3
5.500e+2, 3.799e-6, 4.065e-3
5.510e+2, 3.797e-6, 4.069e-3
5.520e+2, 3.795e-6, 4.073e-3
5.530e+2, 3.793e-6, 4.076e-3
5.540e+2, 3.791e-6, 4.080e-3
5.550e+2, 3.789e-6, 4.084e-3
5.560e+2, 3.787e-6, 4.088e-3
5.570e+2, 3.786e-6, 4.091e-3
5.580e+2, 3.784e-6, 4.095e-3
5.590e+2, 3.782e-6, 4.099e-3
5.600e+2, 3.780e-6, 4.103e-3
5.610e+2, 3.778e-6, 4.107e-3
5.620e+2, 3.777e-6, 4.110e-3
5.630e+2, 3.775e-6, 4.114e-3
5.640e+2, 3.773e-6, 4.118e-3
5.650e+2, 3.772e-6, 4.122e-3
5.660e+2, 3.770e-6, 4.125e-3
5.670e+2, 3.797e-6, 4.129e-3
5.680e+2, 3.773e-6, 4.133e-3
5.690e+2, 3.769e-6, 4.137e-3
5.700e+2, 3.766e-6, 4.141e-3
5.710e+2, 3.764e-6, 4.144e-3
5.720e+2, 3.762e-6, 4.148e-3
5.730e+2, 3.760e-6, 4.152e-3
5.740e+2, 3.758e-6, 4.156e-3
5.750e+2, 3.756e-6, 4.159e-3
5.760e+2, 3.754e-6, 4.163e-3
5.770e+2, 3.753e-6, 4.167e-3
5.780e+2, 3.751e-6, 4.171e-3
5.790e+2, 3.749e-6, 4.174e-3
5.800e+2, 3.748e-6, 4.178e-3
5.810e+2, 3.745e-6, 4.182e-3
5.820e+2, 3.743e-6, 4.186e-3
5.830e+2, 3.741e-6, 4.189e-3
5.840e+2, 3.740e-6, 4.193e-3
5.850e+2, 3.738e-6, 4.197e-3
5.860e+2, 3.743e-6, 4.201e-3
5.870e+2, 3.735e-6, 4.204e-3
5.880e+2, 3.733e-6, 4.208e-3
5.890e+2, 3.731e-6, 4.212e-3
5.900e+2, 3.729e-6, 4.216e-3
5.910e+2, 3.728e-6, 4.219e-3
5.920e+2, 3.726e-6, 4.223e-3
5.930e+2, 3.725e-6, 4.227e-3
5.940e+2, 3.723e-6, 4.230e-3
5.950e+2, 3.722e-6, 4.234e-3
5.960e+2, 3.720e-6, 4.238e-3
5.970e+2, 3.717e-6, 4.242e-3
5.980e+2, 3.716e-6, 4.245e-3
5.990e+2, 3.715e-6, 4.249e-3
6.000e+2, 3.713e-6, 4.253e-3
6.010e+2, 3.711e-6, 4.256e-3
6.020e+2, 3.709e-6, 4.260e-3
6.030e+2, 3.707e-6, 4.264e-3
6.040e+2, 3.706e-6, 4.268e-3
6.050e+2, 3.704e-6, 4.271e-3
6.060e+2, 3.703e-6, 4.275e-3
6.070e+2, 3.701e-6, 4.279e-3
6.080e+2, 3.700e-6, 4.282e-3
6.090e+2, 3.698e-6, 4.286e-3
6.100e+2, 3.696e-6, 4.290e-3
6.110e+2, 3.694e-6, 4.293e-3
6.120e+2, 3.693e-6, 4.297e-3
6.130e+2, 3.691e-6, 4.301e-3
6.140e+2, 3.689e-6, 4.305e-3
6.150e+2, 3.688e-6, 4.308e-3
6.160e+2, 3.686e-6, 4.312e-3
6.170e+2, 3.685e-6, 4.316e-3
6.180e+2, 3.683e-6, 4.319e-3
6.190e+2, 3.682e-6, 4.323e-3
6.200e+2, 3.680e-6, 4.327e-3
6.210e+2, 3.679e-6, 4.330e-3
6.220e+2, 3.678e-6, 4.334e-3
6.230e+2, 3.676e-6, 4.338e-3
6.240e+2, 3.675e-6, 4.341e-3
6.250e+2, 3.674e-6, 4.345e-3
6.260e+2, 3.672e-6, 4.349e-3
6.270e+2, 3.670e-6, 4.352e-3
6.280e+2, 3.668e-6, 4.356e-3
6.290e+2, 3.667e-6, 4.360e-3
6.300e+2, 3.666e-6, 4.363e-3
6.310e+2, 3.664e-6, 4.367e-3
6.320e+2, 3.663e-6, 4.371e-3
6.330e+2, 3.662e-6, 4.374e-3
6.340e+2, 3.660e-6, 4.378e-3
6.350e+2, 3.658e-6, 4.382e-3
6.360e+2, 3.657e-6, 4.385e-3
6.370e+2, 3.655e-6, 4.389e-3
6.380e+2, 3.663e-6, 4.393e-3
6.390e+2, 3.654e-6, 4.396e-3
6.400e+2, 3.654e-6, 4.400e-3
6.410e+2, 3.652e-6, 4.404e-3
6.420e+2, 3.650e-6, 4.407e-3
6.430e+2, 3.648e-6, 4.411e-3
6.440e+2, 3.646e-6, 4.415e-3
6.450e+2, 3.645e-6, 4.418e-3
6.460e+2, 3.644e-6, 4.422e-3
6.470e+2, 3.641e-6, 4.425e-3
6.480e+2, 3.640e-6, 4.429e-3
6.490e+2, 3.638e-6, 4.433e-3
6.500e+2, 3.637e-6, 4.436e-3
6.510e+2, 3.635e-6, 4.440e-3
6.520e+2, 3.634e-6, 4.444e-3
6.530e+2, 3.632e-6, 4.447e-3
6.540e+2, 3.630e-6, 4.451e-3
6.550e+2, 3.628e-6, 4.455e-3
6.560e+2, 3.625e-6, 4.458e-3
6.570e+2, 3.623e-6, 4.462e-3
6.580e+2, 3.621e-6, 4.465e-3
6.590e+2, 3.619e-6, 4.469e-3
6.600e+2, 3.617e-6, 4.473e-3
6.610e+2, 3.616e-6, 4.476e-3
6.620e+2, 3.615e-6, 4.480e-3
6.630e+2, 3.617e-6, 4.484e-3
6.640e+2, 3.612e-6, 4.487e-3
6.650e+2, 3.611e-6, 4.491e-3
6.660e+2, 3.610e-6, 4.494e-3
6.670e+2, 3.609e-6, 4.498e-3
6.680e+2, 3.608e-6, 4.502e-3
6.690e+2, 3.607e-6, 4.505e-3
6.700e+2, 3.605e-6, 4.509e-3
6.710e+2, 3.604e-6, 4.512e-3
6.720e+2, 3.603e-6, 4.516e-3
6.730e+2, 3.601e-6, 4.520e-3
6.740e+2, 3.600e-6, 4.523e-3
6.750e+2, 3.599e-6, 4.527e-3
6.760e+2, 3.598e-6, 4.530e-3
6.770e+2, 3.596e-6, 4.534e-3
6.780e+2, 3.594e-6, 4.538e-3
6.790e+2, 3.593e-6, 4.541e-3
6.800e+2, 3.593e-6, 4.545e-3
6.810e+2, 3.591e-6, 4.548e-3
6.820e+2, 3.593e-6, 4.552e-3
6.830e+2, 3.589e-6, 4.556e-3
6.840e+2, 3.588e-6, 4.559e-3
6.850e+2, 3.586e-6, 4.563e-3
6.860e+2, 3.585e-6, 4.566e-3
6.870e+2, 3.585e-6, 4.570e-3
6.880e+2, 3.583e-6, 4.573e-3
6.890e+2, 3.582e-6, 4.577e-3
6.900e+2, 3.602e-6, 4.581e-3
6.910e+2, 3.583e-6, 4.584e-3
6.920e+2, 3.581e-6, 4.588e-3
6.930e+2, 3.579e-6, 4.591e-3
6.940e+2, 3.578e-6, 4.595e-3
6.950e+2, 3.577e-6, 4.599e-3
6.960e+2, 3.575e-6, 4.602e-3
6.970e+2, 3.574e-6, 4.606e-3
6.980e+2, 3.573e-6, 4.609e-3
6.990e+2, 3.572e-6, 4.613e-3
7.000e+2, 3.572e-6, 4.616e-3
7.010e+2, 3.570e-6, 4.620e-3
7.020e+2, 3.568e-6, 4.624e-3
7.030e+2, 3.567e-6, 4.627e-3
7.040e+2, 3.575e-6, 4.631e-3
7.050e+2, 3.577e-6, 4.634e-3
7.060e+2, 3.568e-6, 4.638e-3
7.070e+2, 3.566e-6, 4.641e-3
7.080e+2, 3.563e-6, 4.645e-3
7.090e+2, 3.561e-6, 4.649e-3
7.100e+2, 3.560e-6, 4.652e-3
7.110e+2, 3.559e-6, 4.656e-3
7.120e+2, 3.558e-6, 4.659e-3
7.130e+2, 3.556e-6, 4.663e-3
7.140e+2, 3.554e-6, 4.666e-3
7.150e+2, 3.552e-6, 4.670e-3
7.160e+2, 3.551e-6, 4.673e-3
7.170e+2, 3.550e-6, 4.677e-3
7.180e+2, 3.548e-6, 4.681e-3
7.190e+2, 3.549e-6, 4.684e-3
7.200e+2, 3.549e-6, 4.688e-3
7.210e+2, 3.545e-6, 4.691e-3
7.220e+2, 3.543e-6, 4.695e-3
7.230e+2, 3.542e-6, 4.698e-3
7.240e+2, 3.541e-6, 4.702e-3
7.250e+2, 3.540e-6, 4.705e-3
7.260e+2, 3.538e-6, 4.709e-3
7.270e+2, 3.537e-6, 4.712e-3
7.280e+2, 3.536e-6, 4.716e-3
7.290e+2, 3.537e-6, 4.719e-3
7.300e+2, 3.535e-6, 4.723e-3
7.310e+2, 3.533e-6, 4.727e-3
7.320e+2, 3.532e-6, 4.730e-3
7.330e+2, 3.531e-6, 4.734e-3
7.340e+2, 3.530e-6, 4.737e-3
7.350e+2, 3.529e-6, 4.741e-3
7.360e+2, 3.528e-6, 4.744e-3
7.370e+2, 3.526e-6, 4.748e-3
7.380e+2, 3.525e-6, 4.751e-3
7.390e+2, 3.524e-6, 4.755e-3
7.400e+2, 3.523e-6, 4.758e-3
7.410e+2, 3.522e-6, 4.762e-3
7.420e+2, 3.521e-6, 4.765e-3
7.430e+2, 3.520e-6, 4.769e-3
7.440e+2, 3.518e-6, 4.772e-3
7.450e+2, 3.517e-6, 4.776e-3
7.460e+2, 3.515e-6, 4.779e-3
7.470e+2, 3.514e-6, 4.783e-3
7.480e+2, 3.513e-6, 4.786e-3
7.490e+2, 3.512e-6, 4.790e-3
7.500e+2, 3.511e-6, 4.793e-3
7.510e+2, 3.509e-6, 4.797e-3
7.520e+2, 3.509e-6, 4.800e-3
7.530e+2, 3.508e-6, 4.804e-3
7.540e+2, 3.507e-6, 4.807e-3
7.550e+2, 3.506e-6, 4.811e-3
7.560e+2, 3.504e-6, 4.814e-3
7.570e+2, 3.504e-6, 4.818e-3
7.580e+2, 3.502e-6, 4.821e-3
7.590e+2, 3.501e-6, 4.825e-3
7.600e+2, 3.500e-6, 4.828e-3
7.610e+2, 3.499e-6, 4.832e-3
7.620e+2, 3.498e-6, 4.835e-3
7.630e+2, 3.497e-6, 4.839e-3
7.640e+2, 3.495e-6, 4.842e-3
7.650e+2, 3.494e-6, 4.846e-3
7.660e+2, 3.493e-6, 4.849e-3
7.670e+2, 3.492e-6, 4.853e-3
7.680e+2, 3.491e-6, 4.856e-3
7.690e+2, 3.490e-6, 4.860e-3
7.700e+2, 3.489e-6, 4.863e-3
7.710e+2, 3.488e-6, 4.867e-3
7.720e+2, 3.487e-6, 4.870e-3
7.730e+2, 3.486e-6, 4.874e-3
7.740e+2, 3.485e-6, 4.877e-3
7.750e+2, 3.485e-6, 4.881e-3
7.760e+2, 3.484e-6, 4.884e-3
7.770e+2, 3.483e-6, 4.888e-3
7.780e+2, 3.482e-6, 4.891e-3
7.790e+2, 3.481e-6, 4.895e-3
7.800e+2, 3.480e-6, 4.898e-3
7.810e+2, 3.483e-6, 4.902e-3
7.820e+2, 3.479e-6, 4.905e-3
7.830e+2, 3.477e-6, 4.909e-3
7.840e+2, 3.476e-6, 4.912e-3
7.850e+2, 3.475e-6, 4.916e-3
7.860e+2, 3.474e-6, 4.919e-3
7.870e+2, 3.473e-6, 4.923e-3
7.880e+2, 3.472e-6, 4.926e-3
7.890e+2, 3.471e-6, 4.930e-3
7.900e+2, 3.470e-6, 4.933e-3
7.910e+2, 3.469e-6, 4.936e-3
7.920e+2, 3.467e-6, 4.940e-3
7.930e+2, 3.467e-6, 4.943e-3
7.940e+2, 3.466e-6, 4.947e-3
7.950e+2, 3.466e-6, 4.950e-3
7.960e+2, 3.465e-6, 4.954e-3
7.970e+2, 3.463e-6, 4.957e-3
7.980e+2, 3.463e-6, 4.961e-3
7.990e+2, 3.461e-6, 4.964e-3
8.000e+2, 3.460e-6, 4.968e-3
8.010e+2, 3.460e-6, 4.971e-3
8.020e+2, 3.459e-6, 4.975e-3
8.030e+2, 3.458e-6, 4.978e-3
8.040e+2, 3.457e-6, 4.981e-3
8.050e+2, 3.456e-6, 4.985e-3
8.060e+2, 3.455e-6, 4.988e-3
8.070e+2, 3.454e-6, 4.992e-3
8.080e+2, 3.453e-6, 4.995e-3
8.090e+2, 3.452e-6, 4.999e-3
8.100e+2, 3.451e-6, 5.002e-3
8.110e+2, 3.450e-6, 5.006e-3
8.120e+2, 3.449e-6, 5.009e-3
8.130e+2, 3.448e-6, 5.013e-3
8.140e+2, 3.447e-6, 5.016e-3
8.150e+2, 3.446e-6, 5.019e-3
8.160e+2, 3.445e-6, 5.023e-3
8.170e+2, 3.444e-6, 5.026e-3
8.180e+2, 3.443e-6, 5.030e-3
8.190e+2, 3.442e-6, 5.033e-3
8.200e+2, 3.442e-6, 5.037e-3
8.210e+2, 3.440e-6, 5.040e-3
8.220e+2, 3.439e-6, 5.044e-3
8.230e+2, 3.438e-6, 5.047e-3
8.240e+2, 3.437e-6, 5.050e-3
8.250e+2, 3.436e-6, 5.054e-3
8.260e+2, 3.436e-6, 5.057e-3
8.270e+2, 3.434e-6, 5.061e-3
8.280e+2, 3.434e-6, 5.064e-3
8.290e+2, 3.433e-6, 5.068e-3
8.300e+2, 3.432e-6, 5.071e-3
8.310e+2, 3.431e-6, 5.074e-3
8.320e+2, 3.432e-6, 5.078e-3
8.330e+2, 3.430e-6, 5.081e-3
8.340e+2, 3.429e-6, 5.085e-3
8.350e+2, 3.428e-6, 5.088e-3
8.360e+2, 3.427e-6, 5.092e-3
8.370e+2, 3.426e-6, 5.095e-3
8.380e+2, 3.425e-6, 5.098e-3
8.390e+2, 3.424e-6, 5.102e-3
8.400e+2, 3.423e-6, 5.105e-3
8.410e+2, 3.422e-6, 5.109e-3
8.420e+2, 3.421e-6, 5.112e-3
8.430e+2, 3.420e-6, 5.116e-3
8.440e+2, 3.419e-6, 5.119e-3
8.450e+2, 3.419e-6, 5.122e-3
8.460e+2, 3.418e-6, 5.126e-3
8.470e+2, 3.417e-6, 5.129e-3
8.480e+2, 3.417e-6, 5.133e-3
8.490e+2, 3.417e-6, 5.136e-3
8.500e+2, 3.415e-6, 5.139e-3
8.510e+2, 3.414e-6, 5.143e-3
8.520e+2, 3.413e-6, 5.146e-3
8.530e+2, 3.412e-6, 5.150e-3
8.540e+2, 3.411e-6, 5.153e-3
8.550e+2, 3.410e-6, 5.157e-3
8.560e+2, 3.409e-6, 5.160e-3
8.570e+2, 3.409e-6, 5.163e-3
8.580e+2, 3.408e-6, 5.167e-3
8.590e+2, 3.407e-6, 5.170e-3
8.600e+2, 3.407e-6, 5.174e-3
8.610e+2, 3.405e-6, 5.177e-3
8.620e+2, 3.404e-6, 5.180e-3
8.630e+2, 3.403e-6, 5.184e-3
8.640e+2, 3.402e-6, 5.187e-3
8.650e+2, 3.402e-6, 5.191e-3
8.660e+2, 3.400e-6, 5.194e-3
8.670e+2, 3.402e-6, 5.197e-3
8.680e+2, 3.400e-6, 5.201e-3
8.690e+2, 3.408e-6, 5.204e-3
8.700e+2, 3.398e-6, 5.208e-3
8.710e+2, 3.397e-6, 5.211e-3
8.720e+2, 3.396e-6, 5.214e-3
8.730e+2, 3.395e-6, 5.218e-3
8.740e+2, 3.394e-6, 5.221e-3
8.750e+2, 3.394e-6, 5.225e-3
8.760e+2, 3.393e-6, 5.228e-3
8.770e+2, 3.395e-6, 5.231e-3
8.780e+2, 3.394e-6, 5.235e-3
8.790e+2, 3.395e-6, 5.238e-3
8.800e+2, 3.391e-6, 5.242e-3
8.810e+2, 3.390e-6, 5.245e-3
8.820e+2, 3.388e-6, 5.248e-3
8.830e+2, 3.388e-6, 5.252e-3
8.840e+2, 3.387e-6, 5.255e-3
8.850e+2, 3.386e-6, 5.258e-3
8.860e+2, 3.385e-6, 5.262e-3
8.870e+2, 3.384e-6, 5.265e-3
8.880e+2, 3.384e-6, 5.269e-3
8.890e+2, 3.383e-6, 5.272e-3
8.900e+2, 3.382e-6, 5.275e-3
8.910e+2, 3.381e-6, 5.279e-3
8.920e+2, 3.381e-6, 5.282e-3
8.930e+2, 3.380e-6, 5.286e-3
8.940e+2, 3.379e-6, 5.289e-3
8.950e+2, 3.378e-6, 5.292e-3
8.960e+2, 3.377e-6, 5.296e-3
8.970e+2, 3.376e-6, 5.299e-3
8.980e+2, 3.376e-6, 5.302e-3
8.990e+2, 3.375e-6, 5.306e-3
9.000e+2, 3.374e-6, 5.309e-3
9.010e+2, 3.373e-6, 5.313e-3
9.020e+2, 3.372e-6, 5.316e-3
9.030e+2, 3.371e-6, 5.319e-3
9.040e+2, 3.371e-6, 5.323e-3
9.050e+2, 3.370e-6, 5.326e-3
9.060e+2, 3.370e-6, 5.329e-3
9.070e+2, 3.368e-6, 5.333e-3
9.080e+2, 3.367e-6, 5.336e-3
9.090e+2, 3.366e-6, 5.340e-3
9.100e+2, 3.366e-6, 5.343e-3
9.110e+2, 3.365e-6, 5.346e-3
9.120e+2, 3.364e-6, 5.350e-3
9.130e+2, 3.363e-6, 5.353e-3
9.140e+2, 3.363e-6, 5.356e-3
9.150e+2, 3.362e-6, 5.360e-3
9.160e+2, 3.361e-6, 5.363e-3
9.170e+2, 3.360e-6, 5.366e-3
9.180e+2, 3.359e-6, 5.370e-3
9.190e+2, 3.359e-6, 5.373e-3
9.200e+2, 3.358e-6, 5.377e-3
9.210e+2, 3.357e-6, 5.380e-3
9.220e+2, 3.357e-6, 5.383e-3
9.230e+2, 3.356e-6, 5.387e-3
9.240e+2, 3.355e-6, 5.390e-3
9.250e+2, 3.354e-6, 5.393e-3
9.260e+2, 3.353e-6, 5.397e-3
9.270e+2, 3.353e-6, 5.400e-3
9.280e+2, 3.351e-6, 5.403e-3
9.290e+2, 3.351e-6, 5.407e-3
9.300e+2, 3.350e-6, 5.410e-3
9.310e+2, 3.349e-6, 5.413e-3
9.320e+2, 3.348e-6, 5.417e-3
9.330e+2, 3.348e-6, 5.420e-3
9.340e+2, 3.347e-6, 5.423e-3
9.350e+2, 3.346e-6, 5.427e-3
9.360e+2, 3.346e-6, 5.430e-3
9.370e+2, 3.345e-6, 5.433e-3
9.380e+2, 3.344e-6, 5.437e-3
9.390e+2, 3.343e-6, 5.440e-3
9.400e+2, 3.342e-6, 5.443e-3
9.410e+2, 3.342e-6, 5.447e-3
9.420e+2, 3.341e-6, 5.450e-3
9.430e+2, 3.340e-6, 5.454e-3
9.440e+2, 3.340e-6, 5.457e-3
9.450e+2, 3.339e-6, 5.460e-3
9.460e+2, 3.338e-6, 5.464e-3
9.470e+2, 3.337e-6, 5.467e-3
9.480e+2, 3.337e-6, 5.470e-3
9.490e+2, 3.336e-6, 5.474e-3
9.500e+2, 3.336e-6, 5.477e-3
9.510e+2, 3.335e-6, 5.480e-3
9.520e+2, 3.334e-6, 5.484e-3
9.530e+2, 3.333e-6, 5.487e-3
9.540e+2, 3.332e-6, 5.490e-3
9.550e+2, 3.332e-6, 5.494e-3
9.560e+2, 3.331e-6, 5.497e-3
9.570e+2, 3.330e-6, 5.500e-3
9.580e+2, 3.329e-6, 5.504e-3
9.590e+2, 3.329e-6, 5.507e-3
9.600e+2, 3.328e-6, 5.510e-3
9.610e+2, 3.327e-6, 5.514e-3
9.620e+2, 3.327e-6, 5.517e-3
9.630e+2, 3.327e-6, 5.520e-3
9.640e+2, 3.326e-6, 5.524e-3
9.650e+2, 3.325e-6, 5.527e-3
9.660e+2, 3.324e-6, 5.530e-3
9.670e+2, 3.341e-6, 5.533e-3
9.680e+2, 3.331e-6, 5.537e-3
9.690e+2, 3.326e-6, 5.540e-3
9.700e+2, 3.324e-6, 5.543e-3
9.710e+2, 3.323e-6, 5.547e-3
9.720e+2, 3.322e-6, 5.550e-3
9.730e+2, 3.321e-6, 5.553e-3
9.740e+2, 3.321e-6, 5.557e-3
9.750e+2, 3.320e-6, 5.560e-3
9.760e+2, 3.318e-6, 5.563e-3
9.770e+2, 3.318e-6, 5.567e-3
9.780e+2, 3.317e-6, 5.570e-3
9.790e+2, 3.316e-6, 5.573e-3
9.800e+2, 3.315e-6, 5.577e-3
9.810e+2, 3.315e-6, 5.580e-3
9.820e+2, 3.313e-6, 5.583e-3
9.830e+2, 3.313e-6, 5.587e-3
9.840e+2, 3.312e-6, 5.590e-3
9.850e+2, 3.311e-6, 5.593e-3
9.860e+2, 3.311e-6, 5.597e-3
9.870e+2, 3.310e-6, 5.600e-3
9.880e+2, 3.309e-6, 5.603e-3
9.890e+2, 3.309e-6, 5.606e-3
9.900e+2, 3.308e-6, 5.610e-3
9.910e+2, 3.307e-6, 5.613e-3
9.920e+2, 3.307e-6, 5.616e-3
9.930e+2, 3.306e-6, 5.620e-3
9.940e+2, 3.306e-6, 5.623e-3
9.950e+2, 3.305e-6, 5.626e-3
9.960e+2, 3.304e-6, 5.630e-3
9.970e+2, 3.303e-6, 5.633e-3
9.980e+2, 3.302e-6, 5.636e-3
9.990e+2, 3.301e-6, 5.640e-3
1.000e+3, 3.301e-6, 5.643e-3
1.001e+3, 3.301e-6, 5.646e-3
1.002e+3, 3.300e-6, 5.649e-3
1.003e+3, 3.299e-6, 5.653e-3
1.004e+3, 3.299e-6, 5.656e-3
1.005e+3, 3.298e-6, 5.659e-3
1.006e+3, 3.297e-6, 5.663e-3
1.007e+3, 3.297e-6, 5.666e-3
1.008e+3, 3.296e-6, 5.669e-3
1.009e+3, 3.295e-6, 5.672e-3
1.010e+3, 3.294e-6, 5.676e-3
1.011e+3, 3.294e-6, 5.679e-3
1.012e+3, 3.294e-6, 5.682e-3
1.013e+3, 3.293e-6, 5.686e-3
1.014e+3, 3.293e-6, 5.689e-3
1.015e+3, 3.292e-6, 5.692e-3
1.016e+3, 3.291e-6, 5.696e-3
1.017e+3, 3.291e-6, 5.699e-3
1.018e+3, 3.290e-6, 5.702e-3
1.019e+3, 3.289e-6, 5.705e-3
1.020e+3, 3.289e-6, 5.709e-3
1.021e+3, 3.288e-6, 5.712e-3
1.022e+3, 3.287e-6, 5.715e-3
1.023e+3, 3.287e-6, 5.719e-3
1.024e+3, 3.286e-6, 5.722e-3
1.025e+3, 3.286e-6, 5.725e-3
1.026e+3, 3.286e-6, 5.728e-3
1.027e+3, 3.286e-6, 5.732e-3
1.028e+3, 3.285e-6, 5.735e-3
1.029e+3, 3.284e-6, 5.738e-3
1.030e+3, 3.283e-6, 5.742e-3
1.031e+3, 3.283e-6, 5.745e-3
1.032e+3, 3.282e-6, 5.748e-3
1.033e+3, 3.281e-6, 5.751e-3
1.034e+3, 3.281e-6, 5.755e-3
1.035e+3, 3.280e-6, 5.758e-3
1.036e+3, 3.279e-6, 5.761e-3
1.037e+3, 3.278e-6, 5.765e-3
1.038e+3, 3.278e-6, 5.768e-3
1.039e+3, 3.277e-6, 5.771e-3
1.040e+3, 3.276e-6, 5.774e-3
1.041e+3, 3.276e-6, 5.778e-3
1.042e+3, 3.276e-6, 5.781e-3
1.043e+3, 3.275e-6, 5.784e-3
1.044e+3, 3.274e-6, 5.787e-3
1.045e+3, 3.274e-6, 5.791e-3
1.046e+3, 3.274e-6, 5.794e-3
1.047e+3, 3.273e-6, 5.797e-3
1.048e+3, 3.273e-6, 5.801e-3
1.049e+3, 3.272e-6, 5.804e-3
1.050e+3, 3.271e-6, 5.807e-3
1.051e+3, 3.271e-6, 5.810e-3
1.052e+3, 3.271e-6, 5.814e-3
1.053e+3, 3.271e-6, 5.817e-3
1.054e+3, 3.270e-6, 5.820e-3
1.055e+3, 3.270e-6, 5.823e-3
1.056e+3, 3.269e-6, 5.827e-3
1.057e+3, 3.269e-6, 5.830e-3
1.058e+3, 3.268e-6, 5.833e-3
1.059e+3, 3.267e-6, 5.837e-3
1.060e+3, 3.266e-6, 5.840e-3
1.061e+3, 3.266e-6, 5.843e-3
1.062e+3, 3.265e-6, 5.846e-3
1.063e+3, 3.265e-6, 5.850e-3
1.064e+3, 3.264e-6, 5.853e-3
1.065e+3, 3.263e-6, 5.856e-3
1.066e+3, 3.263e-6, 5.859e-3
1.067e+3, 3.262e-6, 5.863e-3
1.068e+3, 3.262e-6, 5.866e-3
1.069e+3, 3.261e-6, 5.869e-3
1.070e+3, 3.260e-6, 5.872e-3
1.071e+3, 3.260e-6, 5.876e-3
1.072e+3, 3.259e-6, 5.879e-3
1.073e+3, 3.259e-6, 5.882e-3
1.074e+3, 3.258e-6, 5.885e-3
1.075e+3, 3.258e-6, 5.889e-3
1.076e+3, 3.257e-6, 5.892e-3
1.077e+3, 3.257e-6, 5.895e-3
1.078e+3, 3.257e-6, 5.898e-3
1.079e+3, 3.256e-6, 5.902e-3
1.080e+3, 3.256e-6, 5.905e-3
1.081e+3, 3.255e-6, 5.908e-3
1.082e+3, 3.255e-6, 5.912e-3
1.083e+3, 3.254e-6, 5.915e-3
1.084e+3, 3.254e-6, 5.918e-3
1.085e+3, 3.252e-6, 5.921e-3
1.086e+3, 3.252e-6, 5.925e-3
1.087e+3, 3.251e-6, 5.928e-3
1.088e+3, 3.251e-6, 5.931e-3
1.089e+3, 3.250e-6, 5.934e-3
1.090e+3, 3.250e-6, 5.938e-3
1.091e+3, 3.250e-6, 5.941e-3
1.092e+3, 3.250e-6, 5.944e-3
1.093e+3, 3.249e-6, 5.947e-3
1.094e+3, 3.249e-6, 5.951e-3
1.095e+3, 3.248e-6, 5.954e-3
1.096e+3, 3.248e-6, 5.957e-3
1.097e+3, 3.247e-6, 5.960e-3
1.098e+3, 3.247e-6, 5.964e-3
1.099e+3, 3.246e-6, 5.967e-3
1.100e+3, 3.246e-6, 5.970e-3
1.101e+3, 3.245e-6, 5.973e-3
1.102e+3, 3.245e-6, 5.976e-3
1.103e+3, 3.245e-6, 5.980e-3
1.104e+3, 3.244e-6, 5.983e-3
1.105e+3, 3.244e-6, 5.986e-3
1.106e+3, 3.243e-6, 5.989e-3
1.107e+3, 3.243e-6, 5.993e-3
1.108e+3, 3.242e-6, 5.996e-3
1.109e+3, 3.241e-6, 5.999e-3
1.110e+3, 3.241e-6, 6.002e-3
1.111e+3, 3.240e-6, 6.006e-3
1.112e+3, 3.240e-6, 6.009e-3
1.113e+3, 3.239e-6, 6.012e-3
1.114e+3, 3.239e-6, 6.015e-3
1.115e+3, 3.238e-6, 6.019e-3
1.116e+3, 3.238e-6, 6.022e-3
1.117e+3, 3.238e-6, 6.025e-3
1.118e+3, 3.238e-6, 6.028e-3
1.119e+3, 3.237e-6, 6.032e-3
1.120e+3, 3.236e-6, 6.035e-3
1.121e+3, 3.235e-6, 6.038e-3
1.122e+3, 3.235e-6, 6.041e-3
1.123e+3, 3.234e-6, 6.045e-3
1.124e+3, 3.234e-6, 6.048e-3
1.125e+3, 3.234e-6, 6.051e-3
1.126e+3, 3.233e-6, 6.054e-3
1.127e+3, 3.233e-6, 6.057e-3
1.128e+3, 3.232e-6, 6.061e-3
1.129e+3, 3.231e-6, 6.064e-3
1.130e+3, 3.231e-6, 6.067e-3
1.131e+3, 3.230e-6, 6.070e-3
1.132e+3, 3.229e-6, 6.074e-3
1.133e+3, 3.228e-6, 6.077e-3
1.134e+3, 3.228e-6, 6.080e-3
1.135e+3, 3.227e-6, 6.083e-3
1.136e+3, 3.226e-6, 6.087e-3
1.137e+3, 3.226e-6, 6.090e-3
1.138e+3, 3.226e-6, 6.093e-3
1.139e+3, 3.226e-6, 6.096e-3
1.140e+3, 3.225e-6, 6.099e-3
1.141e+3, 3.224e-6, 6.103e-3
1.142e+3, 3.224e-6, 6.106e-3
1.143e+3, 3.223e-6, 6.109e-3
1.144e+3, 3.223e-6, 6.112e-3
1.145e+3, 3.223e-6, 6.116e-3
1.146e+3, 3.223e-6, 6.119e-3
1.147e+3, 3.222e-6, 6.122e-3
1.148e+3, 3.222e-6, 6.125e-3
1.149e+3, 3.222e-6, 6.128e-3
1.150e+3, 3.221e-6, 6.132e-3
1.151e+3, 3.221e-6, 6.135e-3
1.152e+3, 3.220e-6, 6.138e-3
1.153e+3, 3.220e-6, 6.141e-3
1.154e+3, 3.219e-6, 6.145e-3
1.155e+3, 3.219e-6, 6.148e-3
1.156e+3, 3.219e-6, 6.151e-3
1.157e+3, 3.217e-6, 6.154e-3
1.158e+3, 3.217e-6, 6.157e-3
1.159e+3, 3.217e-6, 6.161e-3
1.160e+3, 3.216e-6, 6.164e-3
1.161e+3, 3.216e-6, 6.167e-3
1.162e+3, 3.215e-6, 6.170e-3
1.163e+3, 3.215e-6, 6.173e-3
1.164e+3, 3.215e-6, 6.177e-3
1.165e+3, 3.215e-6, 6.180e-3
1.166e+3, 3.215e-6, 6.183e-3
1.167e+3, 3.214e-6, 6.186e-3
1.168e+3, 3.217e-6, 6.190e-3
1.169e+3, 3.214e-6, 6.193e-3
1.170e+3, 3.213e-6, 6.196e-3
1.171e+3, 3.213e-6, 6.199e-3
1.172e+3, 3.213e-6, 6.202e-3
1.173e+3, 3.212e-6, 6.206e-3
1.174e+3, 3.212e-6, 6.209e-3
1.175e+3, 3.212e-6, 6.212e-3
1.176e+3, 3.212e-6, 6.215e-3
1.177e+3, 3.217e-6, 6.218e-3
1.178e+3, 3.214e-6, 6.222e-3
1.179e+3, 3.214e-6, 6.225e-3
1.180e+3, 3.213e-6, 6.228e-3
1.181e+3, 3.212e-6, 6.231e-3
1.182e+3, 3.211e-6, 6.235e-3
1.183e+3, 3.210e-6, 6.238e-3
1.184e+3, 3.210e-6, 6.241e-3
1.185e+3, 3.209e-6, 6.244e-3
1.186e+3, 3.209e-6, 6.247e-3
1.187e+3, 3.208e-6, 6.251e-3
1.188e+3, 3.207e-6, 6.254e-3
1.189e+3, 3.207e-6, 6.257e-3
1.190e+3, 3.207e-6, 6.260e-3
1.191e+3, 3.206e-6, 6.263e-3
1.192e+3, 3.206e-6, 6.267e-3
1.193e+3, 3.206e-6, 6.270e-3
1.194e+3, 3.205e-6, 6.273e-3
1.195e+3, 3.204e-6, 6.276e-3
1.196e+3, 3.204e-6, 6.279e-3
1.197e+3, 3.203e-6, 6.283e-3
1.198e+3, 3.203e-6, 6.286e-3
1.199e+3, 3.202e-6, 6.289e-3
1.200e+3, 3.202e-6, 6.292e-3
1.201e+3, 3.201e-6, 6.295e-3
1.202e+3, 3.201e-6, 6.299e-3
1.203e+3, 3.200e-6, 6.302e-3
1.204e+3, 3.199e-6, 6.305e-3
1.205e+3, 3.199e-6, 6.308e-3
1.206e+3, 3.199e-6, 6.311e-3
1.207e+3, 3.198e-6, 6.315e-3
1.208e+3, 3.198e-6, 6.318e-3
1.209e+3, 3.197e-6, 6.321e-3
1.210e+3, 3.197e-6, 6.324e-3
1.211e+3, 3.197e-6, 6.327e-3
1.212e+3, 3.196e-6, 6.331e-3
1.213e+3, 3.196e-6, 6.334e-3
1.214e+3, 3.196e-6, 6.337e-3
1.215e+3, 3.196e-6, 6.340e-3
1.216e+3, 3.195e-6, 6.343e-3
1.217e+3, 3.195e-6, 6.347e-3
1.218e+3, 3.195e-6, 6.350e-3
1.219e+3, 3.194e-6, 6.353e-3
1.220e+3, 3.194e-6, 6.356e-3
1.221e+3, 3.193e-6, 6.359e-3
1.222e+3, 3.192e-6, 6.363e-3
1.223e+3, 3.192e-6, 6.366e-3
1.224e+3, 3.192e-6, 6.369e-3
1.225e+3, 3.191e-6, 6.372e-3
1.226e+3, 3.190e-6, 6.375e-3
1.227e+3, 3.190e-6, 6.379e-3
1.228e+3, 3.189e-6, 6.382e-3
1.229e+3, 3.189e-6, 6.385e-3
1.230e+3, 3.189e-6, 6.388e-3
1.231e+3, 3.188e-6, 6.391e-3
1.232e+3, 3.188e-6, 6.394e-3
1.233e+3, 3.187e-6, 6.398e-3
1.234e+3, 3.187e-6, 6.401e-3
1.235e+3, 3.187e-6, 6.404e-3
1.236e+3, 3.186e-6, 6.407e-3
1.237e+3, 3.186e-6, 6.410e-3
1.238e+3, 3.185e-6, 6.414e-3
1.239e+3, 3.185e-6, 6.417e-3
1.240e+3, 3.184e-6, 6.420e-3
1.241e+3, 3.184e-6, 6.423e-3
1.242e+3, 3.183e-6, 6.426e-3
1.243e+3, 3.183e-6, 6.430e-3
1.244e+3, 3.182e-6, 6.433e-3
1.245e+3, 3.223e-6, 6.436e-3
1.246e+3, 3.213e-6, 6.439e-3
1.247e+3, 3.192e-6, 6.442e-3
1.248e+3, 3.188e-6, 6.446e-3
1.249e+3, 3.187e-6, 6.449e-3
1.250e+3, 3.186e-6, 6.452e-3
1.251e+3, 3.185e-6, 6.455e-3
1.252e+3, 3.184e-6, 6.458e-3
1.253e+3, 3.183e-6, 6.461e-3
1.254e+3, 3.183e-6, 6.465e-3
1.255e+3, 3.183e-6, 6.468e-3
1.256e+3, 3.182e-6, 6.471e-3
1.257e+3, 3.181e-6, 6.474e-3
1.258e+3, 3.181e-6, 6.477e-3
1.259e+3, 3.180e-6, 6.481e-3
1.260e+3, 3.180e-6, 6.484e-3
1.261e+3, 3.180e-6, 6.487e-3
1.262e+3, 3.179e-6, 6.490e-3
1.263e+3, 3.178e-6, 6.493e-3
1.264e+3, 3.178e-6, 6.496e-3
1.265e+3, 3.177e-6, 6.500e-3
1.266e+3, 3.177e-6, 6.503e-3
1.267e+3, 3.177e-6, 6.506e-3
1.268e+3, 3.177e-6, 6.509e-3
1.269e+3, 3.176e-6, 6.512e-3
1.270e+3, 3.175e-6, 6.515e-3
1.271e+3, 3.175e-6, 6.519e-3
1.272e+3, 3.175e-6, 6.522e-3
1.273e+3, 3.174e-6, 6.525e-3
1.274e+3, 3.174e-6, 6.528e-3
1.275e+3, 3.173e-6, 6.531e-3
1.276e+3, 3.173e-6, 6.535e-3
1.277e+3, 3.173e-6, 6.538e-3
1.278e+3, 3.173e-6, 6.541e-3
1.279e+3, 3.172e-6, 6.544e-3
1.280e+3, 3.172e-6, 6.547e-3
1.281e+3, 3.171e-6, 6.550e-3
1.282e+3, 3.171e-6, 6.554e-3
1.283e+3, 3.171e-6, 6.557e-3
1.284e+3, 3.170e-6, 6.560e-3
1.285e+3, 3.170e-6, 6.563e-3
1.286e+3, 3.169e-6, 6.566e-3
1.287e+3, 3.169e-6, 6.569e-3
1.288e+3, 3.169e-6, 6.573e-3
1.289e+3, 3.168e-6, 6.576e-3
1.290e+3, 3.168e-6, 6.579e-3
1.291e+3, 3.182e-6, 6.582e-3
1.292e+3, 3.179e-6, 6.585e-3
1.293e+3, 3.170e-6, 6.588e-3
1.294e+3, 3.169e-6, 6.592e-3
1.295e+3, 3.168e-6, 6.595e-3
1.296e+3, 3.168e-6, 6.598e-3
1.297e+3, 3.168e-6, 6.601e-3
1.298e+3, 3.172e-6, 6.604e-3
1.299e+3, 3.167e-6, 6.607e-3
1.300e+3, 3.167e-6, 6.611e-3
1.301e+3, 3.167e-6, 6.614e-3
1.302e+3, 3.166e-6, 6.617e-3
1.303e+3, 3.166e-6, 6.620e-3
1.304e+3, 3.166e-6, 6.623e-3
1.305e+3, 3.166e-6, 6.626e-3
1.306e+3, 3.165e-6, 6.630e-3
1.307e+3, 3.165e-6, 6.633e-3
1.308e+3, 3.165e-6, 6.636e-3
1.309e+3, 3.164e-6, 6.639e-3
1.310e+3, 3.164e-6, 6.642e-3
1.311e+3, 3.164e-6, 6.645e-3
1.312e+3, 3.163e-6, 6.649e-3
1.313e+3, 3.163e-6, 6.652e-3
1.314e+3, 3.163e-6, 6.655e-3
1.315e+3, 3.163e-6, 6.658e-3
1.316e+3, 3.162e-6, 6.661e-3
1.317e+3, 3.162e-6, 6.664e-3
1.318e+3, 3.162e-6, 6.668e-3
1.319e+3, 3.162e-6, 6.671e-3
1.320e+3, 3.161e-6, 6.674e-3
1.321e+3, 3.161e-6, 6.677e-3
1.322e+3, 3.161e-6, 6.680e-3
1.323e+3, 3.160e-6, 6.683e-3
1.324e+3, 3.160e-6, 6.687e-3
1.325e+3, 3.160e-6, 6.690e-3
1.326e+3, 3.159e-6, 6.693e-3
1.327e+3, 3.160e-6, 6.696e-3
1.328e+3, 3.159e-6, 6.699e-3
1.329e+3, 3.158e-6, 6.702e-3
1.330e+3, 3.158e-6, 6.705e-3
1.331e+3, 3.158e-6, 6.709e-3
1.332e+3, 3.158e-6, 6.712e-3
1.333e+3, 3.158e-6, 6.715e-3
1.334e+3, 3.158e-6, 6.718e-3
1.335e+3, 3.157e-6, 6.721e-3
1.336e+3, 3.157e-6, 6.724e-3
1.337e+3, 3.157e-6, 6.728e-3
1.338e+3, 3.156e-6, 6.731e-3
1.339e+3, 3.156e-6, 6.734e-3
1.340e+3, 3.156e-6, 6.737e-3
1.341e+3, 3.156e-6, 6.740e-3
1.342e+3, 3.155e-6, 6.743e-3
1.343e+3, 3.155e-6, 6.747e-3
1.344e+3, 3.154e-6, 6.750e-3
1.345e+3, 3.154e-6, 6.753e-3
1.346e+3, 3.154e-6, 6.756e-3
1.347e+3, 3.153e-6, 6.759e-3
1.348e+3, 3.153e-6, 6.762e-3
1.349e+3, 3.153e-6, 6.765e-3
1.350e+3, 3.153e-6, 6.769e-3
1.351e+3, 3.152e-6, 6.772e-3
1.352e+3, 3.152e-6, 6.775e-3
1.353e+3, 3.152e-6, 6.778e-3
1.354e+3, 3.152e-6, 6.781e-3
1.355e+3, 3.152e-6, 6.784e-3
1.356e+3, 3.151e-6, 6.788e-3
1.357e+3, 3.151e-6, 6.791e-3
1.358e+3, 3.150e-6, 6.794e-3
1.359e+3, 3.151e-6, 6.797e-3
1.360e+3, 3.153e-6, 6.800e-3
1.361e+3, 3.150e-6, 6.803e-3
1.362e+3, 3.149e-6, 6.806e-3
1.363e+3, 3.149e-6, 6.810e-3
1.364e+3, 3.149e-6, 6.813e-3
1.365e+3, 3.149e-6, 6.816e-3
1.366e+3, 3.149e-6, 6.819e-3
1.367e+3, 3.148e-6, 6.822e-3
1.368e+3, 3.148e-6, 6.825e-3
1.369e+3, 3.148e-6, 6.828e-3
1.370e+3, 3.148e-6, 6.832e-3
1.371e+3, 3.148e-6, 6.835e-3
1.372e+3, 3.148e-6, 6.838e-3
1.373e+3, 3.147e-6, 6.841e-3
1.374e+3, 3.147e-6, 6.844e-3
1.375e+3, 3.147e-6, 6.847e-3
1.376e+3, 3.147e-6, 6.850e-3
1.377e+3, 3.147e-6, 6.854e-3
1.378e+3, 3.146e-6, 6.857e-3
1.379e+3, 3.146e-6, 6.860e-3
1.380e+3, 3.146e-6, 6.863e-3
1.381e+3, 3.146e-6, 6.866e-3
1.382e+3, 3.145e-6, 6.869e-3
1.383e+3, 3.146e-6, 6.873e-3
1.384e+3, 3.145e-6, 6.876e-3
1.385e+3, 3.145e-6, 6.879e-3
1.386e+3, 3.145e-6, 6.882e-3
1.387e+3, 3.147e-6, 6.885e-3
1.388e+3, 3.145e-6, 6.888e-3
1.389e+3, 3.145e-6, 6.891e-3
1.390e+3, 3.144e-6, 6.895e-3
1.391e+3, 3.144e-6, 6.898e-3
1.392e+3, 3.144e-6, 6.901e-3
1.393e+3, 3.144e-6, 6.904e-3
1.394e+3, 3.143e-6, 6.907e-3
1.395e+3, 3.143e-6, 6.910e-3
1.396e+3, 3.143e-6, 6.913e-3
1.397e+3, 3.143e-6, 6.917e-3
1.398e+3, 3.143e-6, 6.920e-3
1.399e+3, 3.143e-6, 6.923e-3
1.400e+3, 3.143e-6, 6.926e-3
1.401e+3, 3.142e-6, 6.929e-3
1.402e+3, 3.142e-6, 6.932e-3
1.403e+3, 3.142e-6, 6.935e-3
1.404e+3, 3.142e-6, 6.939e-3
1.405e+3, 3.142e-6, 6.942e-3
1.406e+3, 3.142e-6, 6.945e-3
1.407e+3, 3.141e-6, 6.948e-3
1.408e+3, 3.141e-6, 6.951e-3
1.409e+3, 3.141e-6, 6.954e-3
1.410e+3, 3.141e-6, 6.957e-3
1.411e+3, 3.141e-6, 6.961e-3
1.412e+3, 3.141e-6, 6.964e-3
1.413e+3, 3.141e-6, 6.967e-3
1.414e+3, 3.141e-6, 6.970e-3
1.415e+3, 3.141e-6, 6.973e-3
1.416e+3, 3.141e-6, 6.976e-3
1.417e+3, 3.141e-6, 6.979e-3
1.418e+3, 3.141e-6, 6.983e-3
1.419e+3, 3.140e-6, 6.986e-3
1.420e+3, 3.140e-6, 6.989e-3
1.421e+3, 3.141e-6, 6.992e-3
1.422e+3, 3.141e-6, 6.995e-3
1.423e+3, 3.140e-6, 6.998e-3
1.424e+3, 3.140e-6, 7.001e-3
1.425e+3, 3.140e-6, 7.004e-3
1.426e+3, 3.140e-6, 7.008e-3
1.427e+3, 3.140e-6, 7.011e-3
1.428e+3, 3.140e-6, 7.014e-3
1.429e+3, 3.139e-6, 7.017e-3
1.430e+3, 3.140e-6, 7.020e-3
1.431e+3, 3.139e-6, 7.023e-3
1.432e+3, 3.139e-6, 7.026e-3
1.433e+3, 3.139e-6, 7.030e-3
1.434e+3, 3.139e-6, 7.033e-3
1.435e+3, 3.139e-6, 7.036e-3
1.436e+3, 3.139e-6, 7.039e-3
1.437e+3, 3.139e-6, 7.042e-3
1.438e+3, 3.139e-6, 7.045e-3
1.439e+3, 3.139e-6, 7.048e-3
1.440e+3, 3.139e-6, 7.052e-3
1.441e+3, 3.139e-6, 7.055e-3
1.442e+3, 3.139e-6, 7.058e-3
1.443e+3, 3.139e-6, 7.061e-3
1.444e+3, 3.139e-6, 7.064e-3
1.445e+3, 3.139e-6, 7.067e-3
1.446e+3, 3.139e-6, 7.070e-3
1.447e+3, 3.139e-6, 7.074e-3
1.448e+3, 3.139e-6, 7.077e-3
1.449e+3, 3.139e-6, 7.080e-3
1.450e+3, 3.138e-6, 7.083e-3
1.451e+3, 3.138e-6, 7.086e-3
1.452e+3, 3.138e-6, 7.089e-3
1.453e+3, 3.138e-6, 7.092e-3
1.454e+3, 3.138e-6, 7.096e-3
1.455e+3, 3.138e-6, 7.099e-3
1.456e+3, 3.138e-6, 7.102e-3
1.457e+3, 3.138e-6, 7.105e-3
1.458e+3, 3.137e-6, 7.108e-3
1.459e+3, 3.137e-6, 7.111e-3
1.460e+3, 3.137e-6, 7.114e-3
1.461e+3, 3.137e-6, 7.117e-3
1.462e+3, 3.137e-6, 7.121e-3
1.463e+3, 3.136e-6, 7.124e-3
1.464e+3, 3.136e-6, 7.127e-3
1.465e+3, 3.136e-6, 7.130e-3
1.466e+3, 3.136e-6, 7.133e-3
1.467e+3, 3.136e-6, 7.136e-3
1.468e+3, 3.136e-6, 7.139e-3
1.469e+3, 3.136e-6, 7.143e-3
1.470e+3, 3.136e-6, 7.146e-3
1.471e+3, 3.136e-6, 7.149e-3
1.472e+3, 3.136e-6, 7.152e-3
1.473e+3, 3.136e-6, 7.155e-3
1.474e+3, 3.136e-6, 7.158e-3
1.475e+3, 3.135e-6, 7.161e-3
1.476e+3, 3.135e-6, 7.165e-3
1.477e+3, 3.135e-6, 7.168e-3
1.478e+3, 3.135e-6, 7.171e-3
1.479e+3, 3.135e-6, 7.174e-3
1.480e+3, 3.135e-6, 7.177e-3
1.481e+3, 3.135e-6, 7.180e-3
1.482e+3, 3.135e-6, 7.183e-3
1.483e+3, 3.135e-6, 7.186e-3
1.484e+3, 3.135e-6, 7.190e-3
1.485e+3, 3.135e-6, 7.193e-3
1.486e+3, 3.135e-6, 7.196e-3
1.487e+3, 3.135e-6, 7.199e-3
1.488e+3, 3.135e-6, 7.202e-3
1.489e+3, 3.135e-6, 7.205e-3
1.490e+3, 3.135e-6, 7.208e-3
1.491e+3, 3.135e-6, 7.212e-3
1.492e+3, 3.135e-6, 7.215e-3
1.493e+3, 3.135e-6, 7.218e-3
1.494e+3, 3.135e-6, 7.221e-3
1.495e+3, 3.135e-6, 7.224e-3
1.496e+3, 3.135e-6, 7.227e-3
1.497e+3, 3.135e-6, 7.230e-3
1.498e+3, 3.134e-6, 7.233e-3
1.499e+3, 3.134e-6, 7.237e-3
1.500e+3, 3.134e-6, 7.240e-3
1.501e+3, 3.134e-6, 7.243e-3
1.502e+3, 3.134e-6, 7.246e-3
1.503e+3, 3.134e-6, 7.249e-3
1.504e+3, 3.134e-6, 7.252e-3
1.505e+3, 3.134e-6, 7.255e-3
1.506e+3, 3.134e-6, 7.259e-3
1.507e+3, 3.134e-6, 7.262e-3
1.508e+3, 3.134e-6, 7.265e-3
1.509e+3, 3.134e-6, 7.268e-3
1.510e+3, 3.134e-6, 7.271e-3
1.511e+3, 3.134e-6, 7.274e-3
1.512e+3, 3.134e-6, 7.277e-3
1.513e+3, 3.134e-6, 7.280e-3
1.514e+3, 3.134e-6, 7.284e-3
1.515e+3, 3.134e-6, 7.287e-3
1.516e+3, 3.134e-6, 7.290e-3
1.517e+3, 3.134e-6, 7.293e-3
1.518e+3, 3.134e-6, 7.296e-3
1.519e+3, 3.134e-6, 7.299e-3
1.520e+3, 3.134e-6, 7.302e-3
1.521e+3, 3.134e-6, 7.306e-3
1.522e+3, 3.134e-6, 7.309e-3
1.523e+3, 3.133e-6, 7.312e-3
1.524e+3, 3.133e-6, 7.315e-3
1.525e+3, 3.133e-6, 7.318e-3
1.526e+3, 3.133e-6, 7.321e-3
1.527e+3, 3.132e-6, 7.324e-3
1.528e+3, 3.133e-6, 7.328e-3
1.529e+3, 3.133e-6, 7.331e-3
1.530e+3, 3.132e-6, 7.334e-3
1.531e+3, 3.132e-6, 7.337e-3
1.532e+3, 3.132e-6, 7.340e-3
1.533e+3, 3.132e-6, 7.343e-3
1.534e+3, 3.132e-6, 7.346e-3
1.535e+3, 3.132e-6, 7.349e-3
1.536e+3, 3.132e-6, 7.353e-3
1.537e+3, 3.132e-6, 7.356e-3
1.538e+3, 3.132e-6, 7.359e-3
1.539e+3, 3.132e-6, 7.362e-3
1.540e+3, 3.132e-6, 7.365e-3
1.541e+3, 3.132e-6, 7.368e-3
1.542e+3, 3.132e-6, 7.371e-3
1.543e+3, 3.132e-6, 7.374e-3
1.544e+3, 3.132e-6, 7.378e-3
1.545e+3, 3.131e-6, 7.381e-3
1.546e+3, 3.131e-6, 7.384e-3
1.547e+3, 3.132e-6, 7.387e-3
1.548e+3, 3.132e-6, 7.390e-3
1.549e+3, 3.132e-6, 7.393e-3
1.550e+3, 3.132e-6, 7.396e-3
1.551e+3, 3.132e-6, 7.400e-3
1.552e+3, 3.132e-6, 7.403e-3
1.553e+3, 3.132e-6, 7.406e-3
1.554e+3, 3.132e-6, 7.409e-3
1.555e+3, 3.132e-6, 7.412e-3
1.556e+3, 3.132e-6, 7.415e-3
1.557e+3, 3.132e-6, 7.418e-3
1.558e+3, 3.133e-6, 7.421e-3
1.559e+3, 3.133e-6, 7.425e-3
1.560e+3, 3.132e-6, 7.428e-3
1.561e+3, 3.133e-6, 7.431e-3
1.562e+3, 3.133e-6, 7.434e-3
1.563e+3, 3.132e-6, 7.437e-3
1.564e+3, 3.132e-6, 7.440e-3
1.565e+3, 3.133e-6, 7.443e-3
1.566e+3, 3.133e-6, 7.447e-3
1.567e+3, 3.133e-6, 7.450e-3
1.568e+3, 3.134e-6, 7.453e-3
1.569e+3, 3.134e-6, 7.456e-3
1.570e+3, 3.134e-6, 7.459e-3
1.571e+3, 3.134e-6, 7.462e-3
1.572e+3, 3.134e-6, 7.465e-3
1.573e+3, 3.134e-6, 7.468e-3
1.574e+3, 3.135e-6, 7.472e-3
1.575e+3, 3.136e-6, 7.475e-3
1.576e+3, 3.135e-6, 7.478e-3
1.577e+3, 3.135e-6, 7.481e-3
1.578e+3, 3.134e-6, 7.484e-3
1.579e+3, 3.134e-6, 7.487e-3
1.580e+3, 3.134e-6, 7.490e-3
1.581e+3, 3.134e-6, 7.494e-3
1.582e+3, 3.134e-6, 7.497e-3
1.583e+3, 3.134e-6, 7.500e-3
1.584e+3, 3.134e-6, 7.503e-3
1.585e+3, 3.135e-6, 7.506e-3
1.586e+3, 3.134e-6, 7.509e-3
1.587e+3, 3.134e-6, 7.512e-3
1.588e+3, 3.134e-6, 7.515e-3
1.589e+3, 3.134e-6, 7.519e-3
1.590e+3, 3.135e-6, 7.522e-3
1.591e+3, 3.137e-6, 7.525e-3
1.592e+3, 3.137e-6, 7.528e-3
1.593e+3, 3.137e-6, 7.531e-3
1.594e+3, 3.137e-6, 7.534e-3
1.595e+3, 3.137e-6, 7.537e-3
1.596e+3, 3.137e-6, 7.541e-3
1.597e+3, 3.136e-6, 7.544e-3
1.598e+3, 3.137e-6, 7.547e-3
1.599e+3, 3.136e-6, 7.550e-3
1.600e+3, 3.136e-6, 7.553e-3
1.601e+3, 3.136e-6, 7.556e-3
1.602e+3, 3.136e-6, 7.559e-3
1.603e+3, 3.136e-6, 7.563e-3
1.604e+3, 3.136e-6, 7.566e-3
1.605e+3, 3.136e-6, 7.569e-3
1.606e+3, 3.136e-6, 7.572e-3
1.607e+3, 3.136e-6, 7.575e-3
1.608e+3, 3.136e-6, 7.578e-3
1.609e+3, 3.135e-6, 7.581e-3
1.610e+3, 3.136e-6, 7.584e-3
1.611e+3, 3.135e-6, 7.588e-3
1.612e+3, 3.135e-6, 7.591e-3
1.613e+3, 3.135e-6, 7.594e-3
1.614e+3, 3.135e-6, 7.597e-3
1.615e+3, 3.135e-6, 7.600e-3
1.616e+3, 3.135e-6, 7.603e-3
1.617e+3, 3.135e-6, 7.606e-3
1.618e+3, 3.135e-6, 7.610e-3
1.619e+3, 3.135e-6, 7.613e-3
1.620e+3, 3.135e-6, 7.616e-3
1.621e+3, 3.135e-6, 7.619e-3
1.622e+3, 3.135e-6, 7.622e-3
1.623e+3, 3.135e-6, 7.625e-3
1.624e+3, 3.135e-6, 7.628e-3
1.625e+3, 3.135e-6, 7.631e-3
1.626e+3, 3.135e-6, 7.635e-3
1.627e+3, 3.135e-6, 7.638e-3
1.628e+3, 3.135e-6, 7.641e-3
1.629e+3, 3.136e-6, 7.644e-3
1.630e+3, 3.136e-6, 7.647e-3
1.631e+3, 3.136e-6, 7.650e-3
1.632e+3, 3.136e-6, 7.653e-3
1.633e+3, 3.137e-6, 7.657e-3
1.634e+3, 3.137e-6, 7.660e-3
1.635e+3, 3.137e-6, 7.663e-3
1.636e+3, 3.138e-6, 7.666e-3
1.637e+3, 3.138e-6, 7.669e-3
1.638e+3, 3.149e-6, 7.672e-3
1.639e+3, 3.144e-6, 7.675e-3
1.640e+3, 3.139e-6, 7.679e-3
1.641e+3, 3.138e-6, 7.682e-3
1.642e+3, 3.138e-6, 7.685e-3
1.643e+3, 3.138e-6, 7.688e-3
1.644e+3, 3.138e-6, 7.691e-3
1.645e+3, 3.138e-6, 7.694e-3
1.646e+3, 3.138e-6, 7.697e-3
1.647e+3, 3.138e-6, 7.701e-3
1.648e+3, 3.138e-6, 7.704e-3
1.649e+3, 3.138e-6, 7.707e-3
1.650e+3, 3.138e-6, 7.710e-3
1.651e+3, 3.138e-6, 7.713e-3
1.652e+3, 3.138e-6, 7.716e-3
1.653e+3, 3.138e-6, 7.719e-3
1.654e+3, 3.138e-6, 7.722e-3
1.655e+3, 3.138e-6, 7.726e-3
1.656e+3, 3.138e-6, 7.729e-3
1.657e+3, 3.138e-6, 7.732e-3
1.658e+3, 3.139e-6, 7.735e-3
1.659e+3, 3.139e-6, 7.738e-3
1.660e+3, 3.139e-6, 7.741e-3
1.661e+3, 3.138e-6, 7.744e-3
1.662e+3, 3.139e-6, 7.748e-3
1.663e+3, 3.139e-6, 7.751e-3
1.664e+3, 3.139e-6, 7.754e-3
1.665e+3, 3.139e-6, 7.757e-3
1.666e+3, 3.146e-6, 7.760e-3
1.667e+3, 3.144e-6, 7.763e-3
1.668e+3, 3.143e-6, 7.766e-3
1.669e+3, 3.143e-6, 7.770e-3
1.670e+3, 3.143e-6, 7.773e-3
1.671e+3, 3.143e-6, 7.776e-3
1.672e+3, 3.143e-6, 7.779e-3
1.673e+3, 3.143e-6, 7.782e-3
1.674e+3, 3.143e-6, 7.785e-3
1.675e+3, 3.143e-6, 7.788e-3
1.676e+3, 3.143e-6, 7.792e-3
1.677e+3, 3.143e-6, 7.795e-3
1.678e+3, 3.143e-6, 7.798e-3
1.679e+3, 3.143e-6, 7.801e-3
1.680e+3, 3.142e-6, 7.804e-3
1.681e+3, 3.143e-6, 7.807e-3
1.682e+3, 3.143e-6, 7.810e-3
1.683e+3, 3.143e-6, 7.814e-3
1.684e+3, 3.143e-6, 7.817e-3
1.685e+3, 3.143e-6, 7.820e-3
1.686e+3, 3.143e-6, 7.823e-3
1.687e+3, 3.144e-6, 7.826e-3
1.688e+3, 3.143e-6, 7.829e-3
1.689e+3, 3.144e-6, 7.832e-3
1.690e+3, 3.144e-6, 7.836e-3
1.691e+3, 3.144e-6, 7.839e-3
1.692e+3, 3.144e-6, 7.842e-3
1.693e+3, 3.144e-6, 7.845e-3
1.694e+3, 3.144e-6, 7.848e-3
1.695e+3, 3.144e-6, 7.851e-3
1.696e+3, 3.145e-6, 7.854e-3
1.697e+3, 3.145e-6, 7.858e-3
1.698e+3, 3.145e-6, 7.861e-3
1.699e+3, 3.145e-6, 7.864e-3
1.700e+3, 3.145e-6, 7.867e-3
1.701e+3, 3.145e-6, 7.870e-3
1.702e+3, 3.146e-6, 7.873e-3
1.703e+3, 3.146e-6, 7.876e-3
1.704e+3, 3.146e-6, 7.880e-3
1.705e+3, 3.146e-6, 7.883e-3
1.706e+3, 3.147e-6, 7.886e-3
1.707e+3, 3.147e-6, 7.889e-3
1.708e+3, 3.148e-6, 7.892e-3
1.709e+3, 3.148e-6, 7.895e-3
1.710e+3, 3.148e-6, 7.899e-3
1.711e+3, 3.149e-6, 7.902e-3
1.712e+3, 3.149e-6, 7.905e-3
1.713e+3, 3.149e-6, 7.908e-3
1.714e+3, 3.149e-6, 7.911e-3
1.715e+3, 3.150e-6, 7.914e-3
1.716e+3, 3.150e-6, 7.917e-3
1.717e+3, 3.150e-6, 7.921e-3
1.718e+3, 3.150e-6, 7.924e-3
1.719e+3, 3.151e-6, 7.927e-3
1.720e+3, 3.151e-6, 7.930e-3
1.721e+3, 3.151e-6, 7.933e-3
1.722e+3, 3.152e-6, 7.936e-3
1.723e+3, 3.152e-6, 7.939e-3
1.724e+3, 3.152e-6, 7.943e-3
1.725e+3, 3.152e-6, 7.946e-3
1.726e+3, 3.152e-6, 7.949e-3
1.727e+3, 3.153e-6, 7.952e-3
1.728e+3, 3.153e-6, 7.955e-3
1.729e+3, 3.154e-6, 7.958e-3
1.730e+3, 3.154e-6, 7.962e-3
1.731e+3, 3.154e-6, 7.965e-3
1.732e+3, 3.155e-6, 7.968e-3
1.733e+3, 3.156e-6, 7.971e-3
1.734e+3, 3.156e-6, 7.974e-3
1.735e+3, 3.157e-6, 7.977e-3
1.736e+3, 3.157e-6, 7.980e-3
1.737e+3, 3.159e-6, 7.984e-3
1.738e+3, 3.158e-6, 7.987e-3
1.739e+3, 3.159e-6, 7.990e-3
1.740e+3, 3.159e-6, 7.993e-3
1.741e+3, 3.160e-6, 7.996e-3
1.742e+3, 3.160e-6, 7.999e-3
1.743e+3, 3.161e-6, 8.003e-3
1.744e+3, 3.161e-6, 8.006e-3
1.745e+3, 3.161e-6, 8.009e-3
1.746e+3, 3.162e-6, 8.012e-3
1.747e+3, 3.162e-6, 8.015e-3
1.748e+3, 3.162e-6, 8.018e-3
1.749e+3, 3.162e-6, 8.022e-3
1.750e+3, 3.162e-6, 8.025e-3
1.751e+3, 3.162e-6, 8.028e-3
1.752e+3, 3.163e-6, 8.031e-3
1.753e+3, 3.163e-6, 8.034e-3
1.754e+3, 3.163e-6, 8.037e-3
1.755e+3, 3.164e-6, 8.041e-3
1.756e+3, 3.164e-6, 8.044e-3
1.757e+3, 3.164e-6, 8.047e-3
1.758e+3, 3.165e-6, 8.050e-3
1.759e+3, 3.165e-6, 8.053e-3
1.760e+3, 3.165e-6, 8.056e-3
1.761e+3, 3.166e-6, 8.060e-3
1.762e+3, 3.166e-6, 8.063e-3
1.763e+3, 3.166e-6, 8.066e-3
1.764e+3, 3.166e-6, 8.069e-3
1.765e+3, 3.166e-6, 8.072e-3
1.766e+3, 3.166e-6, 8.075e-3
1.767e+3, 3.167e-6, 8.079e-3
1.768e+3, 3.168e-6, 8.082e-3
1.769e+3, 3.168e-6, 8.085e-3
1.770e+3, 3.168e-6, 8.088e-3
1.771e+3, 3.168e-6, 8.091e-3
1.772e+3, 3.169e-6, 8.094e-3
1.773e+3, 3.169e-6, 8.098e-3
1.774e+3, 3.170e-6, 8.101e-3
1.775e+3, 3.170e-6, 8.104e-3
1.776e+3, 3.170e-6, 8.107e-3
1.777e+3, 3.171e-6, 8.110e-3
1.778e+3, 3.171e-6, 8.113e-3
1.779e+3, 3.172e-6, 8.117e-3
1.780e+3, 3.172e-6, 8.120e-3
1.781e+3, 3.172e-6, 8.123e-3
1.782e+3, 3.173e-6, 8.126e-3
1.783e+3, 3.174e-6, 8.129e-3
1.784e+3, 3.174e-6, 8.132e-3
1.785e+3, 3.175e-6, 8.136e-3
1.786e+3, 3.175e-6, 8.139e-3
1.787e+3, 3.176e-6, 8.142e-3
1.788e+3, 3.176e-6, 8.145e-3
1.789e+3, 3.176e-6, 8.148e-3
1.790e+3, 3.177e-6, 8.151e-3
1.791e+3, 3.177e-6, 8.155e-3
1.792e+3, 3.178e-6, 8.158e-3
1.793e+3, 3.179e-6, 8.161e-3
1.794e+3, 3.179e-6, 8.164e-3
1.795e+3, 3.180e-6, 8.167e-3
1.796e+3, 3.180e-6, 8.171e-3
1.797e+3, 3.180e-6, 8.174e-3
1.798e+3, 3.181e-6, 8.177e-3
1.799e+3, 3.181e-6, 8.180e-3
1.800e+3, 3.181e-6, 8.183e-3
1.801e+3, 3.181e-6, 8.186e-3
1.802e+3, 3.182e-6, 8.190e-3
1.803e+3, 3.182e-6, 8.193e-3
1.804e+3, 3.182e-6, 8.196e-3
1.805e+3, 3.183e-6, 8.199e-3
1.806e+3, 3.183e-6, 8.202e-3
1.807e+3, 3.183e-6, 8.206e-3
1.808e+3, 3.184e-6, 8.209e-3
1.809e+3, 3.184e-6, 8.212e-3
1.810e+3, 3.185e-6, 8.215e-3
1.811e+3, 3.185e-6, 8.218e-3
1.812e+3, 3.186e-6, 8.221e-3
1.813e+3, 3.186e-6, 8.225e-3
1.814e+3, 3.187e-6, 8.228e-3
1.815e+3, 3.187e-6, 8.231e-3
1.816e+3, 3.188e-6, 8.234e-3
1.817e+3, 3.188e-6, 8.237e-3
1.818e+3, 3.189e-6, 8.241e-3
1.819e+3, 3.189e-6, 8.244e-3
1.820e+3, 3.189e-6, 8.247e-3
1.821e+3, 3.190e-6, 8.250e-3
1.822e+3, 3.190e-6, 8.253e-3
1.823e+3, 3.191e-6, 8.257e-3
1.824e+3, 3.191e-6, 8.260e-3
1.825e+3, 3.192e-6, 8.263e-3
1.826e+3, 3.192e-6, 8.266e-3
1.827e+3, 3.192e-6, 8.269e-3
1.828e+3, 3.193e-6, 8.273e-3
1.829e+3, 3.193e-6, 8.276e-3
1.830e+3, 3.194e-6, 8.279e-3
1.831e+3, 3.198e-6, 8.282e-3
1.832e+3, 3.196e-6, 8.285e-3
1.833e+3, 3.196e-6, 8.288e-3
1.834e+3, 3.198e-6, 8.292e-3
1.835e+3, 3.195e-6, 8.295e-3
1.836e+3, 3.197e-6, 8.298e-3
1.837e+3, 3.197e-6, 8.301e-3
1.838e+3, 3.197e-6, 8.304e-3
1.839e+3, 3.197e-6, 8.308e-3
1.840e+3, 3.198e-6, 8.311e-3
1.841e+3, 3.198e-6, 8.314e-3
1.842e+3, 3.199e-6, 8.317e-3
1.843e+3, 3.199e-6, 8.320e-3
1.844e+3, 3.199e-6, 8.324e-3
1.845e+3, 3.201e-6, 8.327e-3
1.846e+3, 3.200e-6, 8.330e-3
1.847e+3, 3.201e-6, 8.333e-3
1.848e+3, 3.201e-6, 8.336e-3
1.849e+3, 3.202e-6, 8.340e-3
1.850e+3, 3.202e-6, 8.343e-3
1.851e+3, 3.203e-6, 8.346e-3
1.852e+3, 3.203e-6, 8.349e-3
1.853e+3, 3.203e-6, 8.352e-3
1.854e+3, 3.204e-6, 8.356e-3
1.855e+3, 3.207e-6, 8.359e-3
1.856e+3, 3.206e-6, 8.362e-3
1.857e+3, 3.206e-6, 8.365e-3
1.858e+3, 3.207e-6, 8.369e-3
1.859e+3, 3.208e-6, 8.372e-3
